,0,1,2,3,4
0,0.9995559,0.00043722632,1.548382e-07,6.768097e-06,1.5975222e-09
1,0.99120647,0.007299092,0.0012423765,0.00023408045,1.8027777e-05
2,0.8507748,0.14884286,0.00013119375,0.00017741916,7.376504e-05
3,0.99936694,0.00039309572,0.00022088787,1.895963e-05,1.2438664e-07
4,0.9934001,0.004501891,0.0018779455,0.00020578661,1.42913705e-05
5,0.9942234,0.0057740198,2.3253515e-06,3.2723435e-07,3.7621466e-09
6,0.99730444,0.0026586591,5.9384424e-06,3.0866657e-05,1.8385474e-08
7,0.9204871,0.07922712,0.00023508865,4.3504828e-05,7.1007007e-06
8,0.9898123,0.009979875,0.00013402967,7.125034e-05,2.4445178e-06
9,0.99953103,0.0004632023,4.420069e-06,1.3782743e-06,2.151396e-08
10,0.9883626,0.011531522,5.4454187e-05,5.10631e-05,3.0123954e-07
11,0.99336183,0.006630339,6.6028774e-06,1.1133263e-06,6.245227e-08
12,0.99519664,0.00290574,0.00021105593,0.0016829093,3.7184777e-06
13,0.92381346,0.07565934,0.0003865873,0.000112322356,2.8282022e-05
14,0.99533266,0.0045624305,8.685627e-05,1.2840509e-05,5.2343676e-06
15,0.9534765,0.044380743,0.0019301648,0.00020499267,7.653427e-06
16,0.99997306,1.8675335e-05,1.8170124e-09,8.181073e-06,1.5219541e-13
17,0.9819073,0.0021312064,0.00033670772,0.015612506,1.2327879e-05
18,0.9992073,0.00078372366,2.6992961e-07,8.605981e-06,1.2877965e-10
19,0.9905284,0.0021278518,0.00478772,0.0023982483,0.00015780094
20,0.99661523,0.0032259382,0.00012987544,2.242507e-05,6.578444e-06
21,0.9974256,0.0025060622,6.001674e-05,6.2464305e-06,1.990929e-06
22,0.9982829,0.0016833593,2.4536474e-05,9.118975e-06,1.5601597e-07
23,0.98403335,0.002325572,0.00038132814,0.013243775,1.6007165e-05
24,0.9946965,0.0049658776,0.00020895823,0.00012562178,2.990515e-06
25,0.99743783,0.0024508948,1.9444278e-05,9.173749e-05,1.2276632e-07
26,0.9297236,0.0648498,0.002456005,0.002596849,0.00037377776
27,0.9976513,0.0018719612,0.000102574515,0.00037205018,2.1961944e-06
28,0.99956447,0.00042112236,2.9004284e-06,1.1301121e-05,1.9727295e-07
29,0.99994314,4.989995e-05,6.233483e-06,3.2632656e-07,3.330663e-07
30,0.99166054,0.007336716,3.9856524e-05,0.0009623655,5.442791e-07
31,0.9869239,0.0020563374,0.00042467105,0.010506936,8.8189205e-05
32,0.9992755,0.0007103393,1.1142423e-05,2.9892483e-06,5.727729e-08
33,0.99800247,0.0019825115,5.1045595e-07,1.4420801e-05,1.8508898e-08
34,0.98338056,0.015081491,0.0012114412,0.00029062032,3.588745e-05
35,0.9989472,0.0009221124,2.0945918e-05,0.00010816366,1.6341418e-06
36,0.99827063,0.0013554154,0.0003222967,5.032609e-05,1.2997285e-06
37,0.8860339,0.078749865,0.02410433,0.01013184,0.0009800819
38,0.9971999,0.002683786,8.0612655e-05,3.5056622e-05,7.1453525e-07
39,0.98960847,0.0011983018,0.00012730985,0.009063307,2.6418284e-06
40,0.99937123,0.0006285109,1.2077608e-07,1.0179264e-07,2.1593247e-10
41,0.9841322,0.01284574,0.002253166,0.00071488007,5.411609e-05
42,0.99691147,0.0030777862,9.321565e-06,1.456712e-06,1.6549944e-08
43,0.9622002,0.03733582,0.00030089336,0.00013614188,2.6901584e-05
44,0.96936494,0.030135687,0.0003428397,0.00013089938,2.548395e-05
45,0.9938305,0.00501534,0.001043571,9.575144e-05,1.4858297e-05
46,0.99396014,0.0060034967,7.745483e-06,2.8400349e-05,1.9803187e-07
47,0.9994271,0.00041364913,0.00014699734,1.2052061e-05,1.9921661e-07
48,0.9996402,0.0003270225,2.9759172e-05,3.0234166e-06,1.4223665e-08
49,0.9787192,0.021239206,1.8271307e-05,2.3033088e-05,4.0134e-07
50,0.9955047,0.0042215716,0.00015866738,0.00011262239,2.5181807e-06
51,0.99327224,0.0066456455,4.2381907e-05,3.9343366e-05,4.427148e-07
52,0.9646828,0.030526547,0.0027106528,0.0020322374,4.7739595e-05
53,0.99503607,0.00484989,5.5738317e-05,5.7816247e-05,4.6601758e-07
54,0.99909604,0.000896602,2.8638144e-07,7.1122604e-06,2.3789881e-09
55,0.9866202,0.003763286,0.006821118,0.001230712,0.0015646539
56,0.96864355,0.027453039,0.002190846,0.0015674226,0.0001451421
57,0.99768174,0.001885308,0.00032534913,9.5473566e-05,1.2074337e-05
58,0.97966915,0.013549946,0.0032876541,0.0032939154,0.00019938168
59,0.9943862,0.005598161,9.995902e-06,5.4259776e-06,2.5560433e-07
60,0.99591416,0.004042062,3.4112138e-05,6.4357514e-06,3.2193996e-06
61,0.9943926,0.0053123254,0.00016772316,0.00012052913,6.9333464e-06
62,0.94231164,0.051792454,0.0042456547,0.0016236684,2.649661e-05
63,0.95377666,0.03786334,0.0071618166,0.0009646306,0.00023357914
64,0.9915826,0.00827585,7.365035e-05,6.7374276e-05,5.66007e-07
65,0.9989317,0.0009854382,5.2328312e-05,3.0349089e-05,2.559991e-07
66,0.9997173,0.00028217433,3.5610438e-07,1.3983149e-07,5.029569e-09
67,0.99348515,0.00518708,0.0008660493,0.0004302176,3.1466883e-05
68,0.991109,0.0033725237,0.0021141188,0.0004083146,0.0029959353
69,0.9929812,0.0069856388,1.6133261e-05,1.6896436e-05,1.2268701e-07
70,0.9979068,0.00208874,3.5118173e-06,9.818913e-07,9.561565e-09
71,0.9997496,0.00012666277,0.00011598756,7.652719e-06,8.605291e-08
72,0.996289,0.0032794175,2.9849356e-05,0.0004015722,1.17498864e-07
73,0.9978921,0.002079141,1.1989759e-05,1.6674108e-05,1.7403136e-07
74,0.9851871,0.014684411,0.00010834515,1.8230281e-05,1.8651806e-06
75,0.99727136,0.002620031,9.404701e-06,9.918052e-05,3.3538548e-08
76,0.99023914,0.00960617,0.00010951376,3.791786e-05,7.1484023e-06
77,0.9880299,0.011867653,6.528218e-05,3.687409e-05,3.5420197e-07
78,0.9889414,0.010949908,3.0195655e-05,7.766139e-05,7.712869e-07
79,0.9979042,0.0006038575,0.0012129548,0.00027644294,2.635586e-06
80,0.9030475,0.093655914,0.0018233389,0.0013084187,0.00016477655
81,0.99984586,0.00015262235,1.252683e-06,2.540772e-07,1.6870239e-09
82,0.9977895,0.0021881391,3.8501216e-06,1.8513307e-05,4.3598856e-08
83,0.9656286,0.0031241714,0.02872595,0.002255374,0.00026592053
84,0.9967056,0.003284251,4.3492137e-06,5.8553155e-06,2.634849e-08
85,0.9897092,0.0055805896,0.003804276,0.00085997215,4.606685e-05
86,0.9330373,0.005234242,0.0018071268,0.059817504,0.000103882536
87,0.95571995,0.044092476,0.00010955626,6.160771e-05,1.654538e-05
88,0.98132664,0.018152632,0.0003590478,0.00015256839,9.176716e-06
89,0.981323,0.018210365,0.0003402434,0.00012243455,3.933644e-06
90,0.9952597,0.0046712365,5.7520614e-05,1.1118259e-05,3.721713e-07
91,0.9978028,0.0014999455,0.0006418792,5.4886135e-05,5.0674936e-07
92,0.9999224,7.250238e-05,4.786859e-06,3.766043e-07,1.6973364e-09
93,0.9939023,0.0043685995,0.000560617,0.001111083,5.741303e-05
94,0.99987376,0.00012363405,2.3673724e-06,2.4664936e-07,1.651823e-09
95,0.9869581,0.010657531,0.0021658705,0.00020240675,1.6106638e-05
96,0.9962166,0.0036463256,3.9679903e-06,0.0001331037,5.2785705e-08
97,0.99761164,0.002281507,6.805478e-06,0.00010001435,1.0029559e-07
98,0.98314315,0.0020169371,0.0003415401,0.014481744,1.667763e-05
99,0.99402255,0.004873984,0.00018801913,0.00089038484,2.4958032e-05
100,0.8974722,0.051564213,0.03939393,0.009893918,0.0016757755
101,0.9957203,0.004245334,2.9552577e-05,4.739134e-06,4.7265544e-08
102,0.89081186,0.10241332,0.0043662335,0.0018578103,0.0005507198
103,0.9966804,0.003311056,3.6340307e-06,4.9660175e-06,3.690241e-08
104,0.99381953,0.005727493,0.00031255413,0.00013961419,7.83932e-07
105,0.99764913,0.0022916512,2.5571215e-05,3.3316468e-05,4.01132e-07
106,0.9909423,0.008965036,1.3726252e-05,7.6957906e-05,1.8508168e-06
107,0.9779985,0.02157076,0.00019292167,0.00023299686,4.8700404e-06
108,0.99971515,0.00023514095,4.6907968e-05,2.7602937e-06,5.05631e-08
109,0.9997564,0.00023654132,3.1520242e-06,3.336305e-06,5.9066963e-07
110,0.99874973,0.0012043602,1.0266757e-06,4.4758825e-05,1.0745533e-08
111,0.9933528,0.0061127986,0.00032654442,0.00016456886,4.3394877e-05
112,0.97634083,0.023541404,6.673462e-05,4.8930597e-05,2.0564587e-06
113,0.99966025,0.0003373055,1.5314612e-06,9.579545e-07,3.2797104e-08
114,0.9203123,0.06186293,0.0015576489,0.00023554396,0.016031507
115,0.9990515,0.00088573195,3.7257312e-05,1.5261365e-05,1.0216227e-05
116,0.993071,0.006565407,0.00022870132,0.0001288633,6.0166394e-06
117,0.9952171,0.00411715,0.0006056252,5.94121e-05,6.683737e-07
118,0.97842216,0.010788314,0.0070978864,0.0019798174,0.0017118057
119,0.96878034,0.030871548,0.00017222101,0.00015962131,1.628749e-05
120,0.99583983,0.0028658884,0.0011164652,0.0001759265,1.889676e-06
121,0.94226223,0.053427108,0.0018031748,0.00241678,9.064602e-05
122,0.9044062,0.01833467,0.06732738,0.008624152,0.0013075323
123,0.99842227,0.0011308034,0.0003769666,6.678701e-05,3.1738596e-06
124,0.9582406,0.04151322,0.00017688473,6.428097e-05,5.0378e-06
125,0.99563545,0.0036534565,0.00034264548,0.00032411597,4.4226195e-05
126,0.9951747,0.0025120212,0.0020535807,0.00025668935,2.9266407e-06
127,0.9992987,0.0006161613,2.3761739e-05,5.807755e-05,3.2848302e-06
128,0.9977823,0.0021997772,7.867326e-06,1.0014337e-05,1.1609148e-07
129,0.9918676,0.008103953,1.0712924e-05,1.7687726e-05,1.6849503e-07
130,0.9975261,0.002297246,0.00013233245,4.2777425e-05,1.4881203e-06
131,0.9997013,0.00029839875,1.7559924e-07,1.0137784e-07,7.0442174e-10
132,0.99768627,0.0009144903,0.0012906101,0.000105919724,2.7052834e-06
133,0.99870384,0.0012355525,5.390177e-05,6.4307574e-06,2.1491657e-07
134,0.9918377,0.0076530497,0.00035583656,0.00014836347,5.1085976e-06
135,0.9978282,0.0021100566,1.8644032e-06,5.991912e-05,3.5682643e-08
136,0.9939427,0.0059445314,7.59182e-05,3.6174762e-05,6.585083e-07
137,0.9864639,0.013000961,0.0003882773,0.00014463204,2.2733032e-06
138,0.9863214,0.013666683,9.044404e-06,2.8623094e-06,6.6472346e-08
139,0.9998863,0.00010570959,1.691746e-08,7.940493e-06,1.2305876e-11
140,0.998811,0.0006943672,7.012536e-05,0.00039412783,3.0395962e-05
141,0.94660735,0.053173337,0.00010262104,0.000106113395,1.0641413e-05
142,0.9988181,0.0010757596,2.9832136e-06,0.00010303135,1.2449549e-07
143,0.9947345,0.0025081518,1.6342996e-05,0.0027403962,5.612268e-07
144,0.9993211,0.0004548471,0.00010287641,0.000120923716,2.5561164e-07
145,0.97175086,0.028132502,6.605627e-05,4.9616217e-05,9.764634e-07
146,0.9998958,9.814897e-05,3.3203108e-08,5.999528e-06,2.0521931e-11
147,0.9938532,0.0033405735,0.0023279807,0.0004257172,5.250916e-05
148,0.99648714,0.0021253473,0.0012978043,8.400205e-05,5.752566e-06
149,0.9952394,0.004703514,1.0111602e-05,4.693499e-05,4.5411213e-08
150,0.98242354,0.014063677,0.0026946834,0.0007522685,6.589951e-05
151,0.993923,0.005622307,0.00042443932,2.8727476e-05,1.4079069e-06
152,0.96631426,0.031940438,0.0007667286,0.0009482147,3.0369098e-05
153,0.9855533,0.012828638,0.001174692,0.00037847372,6.485854e-05
154,0.9786751,0.02006597,0.00034110429,0.00090523774,1.258958e-05
155,0.9646967,0.035216838,5.0558945e-05,3.5368044e-05,6.3143136e-07
156,0.98731226,0.010378132,0.0009850002,0.00128666,3.7913054e-05
157,0.9975204,0.0023519297,0.000111759175,1.2674551e-05,3.3020183e-06
158,0.88608533,0.08547149,0.022249073,0.0057722325,0.00042192452
159,0.08454486,0.0016458629,0.89900714,0.014089423,0.0007126447
160,0.9897357,0.010132674,8.256241e-05,4.8419155e-05,5.6605455e-07
161,0.9626736,0.032507516,0.0027347924,0.0020202235,6.377792e-05
162,0.9830822,0.016753519,0.00012042826,4.1407522e-05,2.435661e-06
163,0.9988267,0.0011252993,1.526089e-06,4.6314923e-05,1.192936e-07
164,0.99499303,0.0049594175,8.405446e-06,3.8908784e-05,2.1108892e-07
165,0.9949916,0.0046418584,9.093033e-05,0.0002753405,2.6557038e-07
166,0.87549776,0.12423624,5.985312e-05,0.00020174513,4.395946e-06
167,0.9931288,0.0065003913,0.00024496604,0.00012342536,2.4240455e-06
168,0.99887913,0.0011200963,1.12872456e-07,6.4230136e-07,1.4418705e-09
169,0.99828416,0.0016438764,1.7328099e-05,5.393711e-05,6.419745e-07
170,0.93856585,0.061345696,3.6594993e-05,4.9917733e-05,1.934797e-06
171,0.9967002,0.0030132802,0.00023216024,5.280285e-05,1.5696316e-06
172,0.80889124,0.18935223,0.00059941463,0.0006147036,0.0005424227
173,0.9980673,0.0014224247,0.00022233209,0.00023883527,4.9093353e-05
174,0.9956468,0.0043284264,1.3149625e-05,1.1313492e-05,3.2012076e-07
175,0.99923587,0.00074418215,2.9888135e-06,1.6639942e-05,3.183926e-07
176,0.99818283,0.0011425819,0.00013960456,0.00047975866,5.5223227e-05
177,0.9958002,0.004195557,2.456786e-06,1.7606266e-06,4.7432625e-08
178,0.99853146,0.0014200257,3.5265773e-05,1.2728154e-05,5.2769605e-07
179,0.9930314,0.0067336936,0.0001629751,7.0691254e-05,1.1575538e-06
180,0.98685324,0.001991238,0.00037280208,0.010754475,2.8252873e-05
181,0.99935085,0.00042392523,0.00020978307,1.5148146e-05,3.7295277e-07
182,0.9888986,0.010989779,8.291746e-05,2.7600896e-05,1.0467634e-06
183,0.982726,0.014842639,0.0013190046,0.00069693313,0.0004154448
184,0.99952745,0.0004366705,1.6108922e-07,3.5700883e-05,1.2611912e-10
185,0.99908316,0.0008752065,2.702343e-05,1.4376529e-05,8.628225e-08
186,0.98858064,0.002511003,0.0069196536,0.001963524,2.5222591e-05
187,0.99933916,0.0006498865,3.2180074e-07,1.05834915e-05,3.0180414e-10
188,0.99998343,1.36685085e-05,1.2740474e-09,2.865474e-06,1.9598509e-13
189,0.99696773,0.0021177793,0.00083084276,8.228392e-05,1.4272077e-06
190,0.9982804,0.0016094688,8.1954735e-05,2.8100836e-05,1.5802786e-07
191,0.975937,0.02016811,0.003369735,0.0004890708,3.612293e-05
192,0.9566601,0.043065485,0.00018150841,8.571937e-05,7.2097255e-06
193,0.9877077,0.012259404,2.4915113e-05,7.699154e-06,3.8021233e-07
194,0.9576685,0.009100522,0.0054913773,0.023285164,0.004454572
195,0.99185014,0.007622574,0.0003164152,0.00020975909,1.196946e-06
196,0.99483705,0.004460053,1.6417822e-05,0.0006856968,7.847226e-07
197,0.99675024,0.0031586953,6.451996e-05,2.6141888e-05,4.977929e-07
198,0.9307001,0.06610918,0.0020117648,0.0010571373,0.00012169008
199,0.9902581,0.00742143,0.001125122,0.0005678252,0.0006275519
200,0.982694,0.016406676,0.00015812038,0.0007248578,1.637748e-05
201,0.9909313,0.008964069,8.959499e-05,1.4279012e-05,7.6955143e-07
202,0.9985208,0.0014476476,2.747227e-06,2.8845121e-05,4.4695906e-08
203,0.9993826,0.00038059815,0.00021999577,1.645945e-05,2.5546774e-07
204,0.9980013,0.0016953469,0.00026929952,3.365321e-05,4.79634e-07
205,0.9881528,0.011742137,8.587889e-05,1.3783551e-05,5.4455845e-06
206,0.99465287,0.005233006,4.6963818e-05,6.621698e-05,8.120232e-07
207,0.99411076,0.005451963,0.00036159233,7.284315e-05,2.8224104e-06
208,0.99844724,0.001460699,8.535066e-05,6.615965e-06,1.1992378e-07
209,0.9950677,0.0049140807,9.785784e-06,8.223349e-06,1.4914067e-07
210,0.9869233,0.010203483,0.0019175551,0.00053941604,0.0004162578
211,0.994304,0.0031542205,0.00031791488,0.0022213412,2.5094223e-06
212,0.9764217,0.022372592,0.0005822909,0.0005968475,2.6562135e-05
213,0.99717474,0.0018454692,0.0006634312,0.0003152986,1.103034e-06
214,0.9673438,0.031198407,0.0012226395,0.00022192397,1.322166e-05
215,0.999969,2.8838762e-05,2.773912e-09,2.120403e-06,7.3293764e-13
216,0.99736434,0.0024264639,0.00014334773,6.518705e-05,6.6778045e-07
217,0.99701405,0.0029668782,3.48674e-06,1.543043e-05,1.2145489e-07
218,0.97020376,0.027666196,0.0010863368,0.0010083064,3.543779e-05
219,0.99924374,0.00036025382,0.00032979553,6.5883665e-05,3.3239365e-07
220,0.9913146,0.002181128,0.00028240838,0.0062015536,2.0376245e-05
221,0.9784833,0.0012751487,0.0014204826,0.00046722285,0.018353824
222,0.9790532,0.0024076928,0.017681675,0.0006433422,0.00021411094
223,0.9963297,0.003485976,0.0001248317,5.817239e-05,1.2907549e-06
224,0.9945563,0.005040512,0.00024031459,0.000159692,3.1572433e-06
225,0.99863523,0.0013645826,5.7969924e-08,2.3183823e-08,1.03540884e-10
226,0.98680437,0.013116479,5.44157e-05,2.3459186e-05,1.2500633e-06
227,0.9589314,0.040836543,0.00012220003,0.00010732619,2.4597757e-06
228,0.9449301,0.054436177,8.03675e-05,0.00053583266,1.7586826e-05
229,0.98919475,0.010140255,0.00039144923,0.00026115472,1.2408552e-05
230,0.99875,0.0005356622,0.0006698585,4.4127024e-05,3.9994418e-07
231,0.9792787,0.020266235,0.00030120384,0.00015189307,1.9353542e-06
232,0.98841256,0.01142249,0.00011658434,4.3834567e-05,4.604317e-06
233,0.9811328,0.01296216,0.005080096,0.00077487965,5.0045066e-05
234,0.9938187,0.005643825,0.00032274672,0.0001542273,6.0487117e-05
235,0.9958549,0.0012814533,0.0019237599,0.0008944113,4.5504286e-05
236,0.9670856,0.032849167,4.45143e-05,2.0104217e-05,5.3009194e-07
237,0.99290645,0.007012148,3.8970975e-05,3.8673938e-05,3.7938844e-06
238,0.9875693,0.012148473,0.00015914324,0.000113190275,9.839811e-06
239,0.98369414,0.015156892,0.00080323336,0.0003403534,5.4426196e-06
240,0.9966629,0.003249822,6.789232e-05,1.0147295e-05,9.115811e-06
241,0.9941544,0.0055590924,0.00023520221,5.0471648e-05,9.115749e-07
242,0.99705756,0.00059999654,0.0021828006,0.00015782563,1.7953315e-06
243,0.99994636,5.2420495e-05,5.1678803e-09,1.2380184e-06,1.4938797e-11
244,0.9885033,0.011163576,0.00022889374,9.5600095e-05,8.654231e-06
245,0.9998963,0.00010201318,1.4540925e-06,1.7751509e-07,6.024083e-09
246,0.99935335,0.0006367912,2.9930146e-07,9.559017e-06,1.0113569e-08
247,0.99161947,0.008261431,3.9047463e-05,7.9202706e-05,8.506322e-07
248,0.9736422,0.002508874,0.0006285059,0.023186592,3.3792494e-05
249,0.9950749,0.004577329,0.00022336676,0.00012291495,1.5938446e-06
250,0.99304867,0.0042440374,0.0013814021,0.001244542,8.127845e-05
251,0.9891039,0.0048063803,0.0018570723,0.0014239902,0.0028085876
252,0.9929431,0.003980019,0.0021644128,0.00048947387,0.00042291792
253,0.9980337,0.0019604461,3.249664e-06,1.6283122e-06,1.0015184e-06
254,0.90872455,0.055126965,0.024013864,0.009893778,0.0022409218
255,0.9995208,0.00046478768,5.325679e-07,1.3893927e-05,2.8164178e-09
256,0.9777191,0.021966107,0.00021179015,9.619992e-05,6.913334e-06
257,0.9917088,0.007785058,0.00039871392,0.00010256087,4.8710467e-06
258,0.9788069,0.0073084673,0.0034364136,0.0033184323,0.0071297674
259,0.9962519,0.0036446743,7.37195e-05,2.8998054e-05,7.1281846e-07
260,0.99464524,0.005276959,5.069812e-05,2.5633646e-05,1.4131729e-06
261,0.99904984,0.0009453627,8.497986e-07,3.9423367e-06,3.2182555e-08
262,0.9999825,1.40418815e-05,3.2968103e-06,2.0641312e-07,3.6820702e-09
263,0.879514,0.006013993,0.11184607,0.0024507833,0.00017524096
264,0.99663466,0.002898623,0.00033842778,0.00012709774,1.1446407e-06
265,0.98915815,0.009250233,0.0007583707,0.0007752045,5.8072565e-05
266,0.93361133,0.06631692,4.1717296e-05,2.4181243e-05,5.879472e-06
267,0.98090416,0.018121894,0.0006621639,0.0003071246,4.623555e-06
268,0.99980015,0.00019711662,2.3749426e-06,3.2565504e-07,1.5135342e-09
269,0.99901354,0.0009852399,2.8740072e-07,9.629515e-07,9.0606866e-10
270,0.9938911,0.0060991356,4.4927788e-06,5.2668865e-06,1.7945757e-08
271,0.98468256,0.0038043745,0.00030610012,0.011182059,2.4834586e-05
272,0.97000915,0.029650293,0.000244289,9.174346e-05,4.5459483e-06
273,0.9997782,0.0002218134,3.05541e-08,1.9557982e-08,2.7112333e-11
274,0.97869545,0.0027190312,0.0003010204,0.01826922,1.5413501e-05
275,0.990428,0.009527781,1.832976e-05,2.5859877e-05,1.3438681e-07
276,0.96223736,0.03698923,0.00057489274,0.00018318309,1.5349922e-05
277,0.99861264,0.0013461497,1.2401141e-06,3.999716e-05,1.286126e-08
278,0.97179735,0.026686039,0.0014078612,0.00010457388,4.3342393e-06
279,0.99603647,0.0038393775,9.759993e-05,1.8729412e-05,7.825285e-06
280,0.94287455,0.05517917,0.0015436993,0.0003548533,4.779121e-05
281,0.9864763,0.012980206,0.00040307053,0.00013730522,3.0159638e-06
282,0.99284995,0.006906653,2.7888571e-05,0.00021513872,4.9423227e-07
283,0.96257144,0.002085323,0.0079677915,0.0019594056,0.025416065
284,0.99273396,0.006841086,0.00018271885,0.00024126367,9.49011e-07
285,0.9868118,0.013126789,2.3743998e-05,3.691288e-05,6.50164e-07
286,0.9961034,0.0036214802,0.0001709633,0.000102494705,1.6221912e-06
287,0.8360405,0.013771363,0.094832875,0.022026632,0.033328693
288,0.9980659,0.0017597984,3.585412e-06,0.0001707775,5.8654926e-08
289,0.9609887,0.037103742,0.00083709316,0.0010267843,4.3624324e-05
290,0.89221036,0.0122799715,0.07070978,0.01854785,0.006252032
291,0.9966434,0.003265268,6.5789216e-05,2.4947349e-05,6.1129776e-07
292,0.97690886,0.021755394,0.000755539,0.0005545909,2.5564197e-05
293,0.99442977,0.001264788,0.0001573471,0.0041418555,6.296261e-06
294,0.9890376,0.008180641,0.0024549877,0.0002493245,7.746233e-05
295,0.99344844,0.006528012,1.7384647e-05,5.655455e-06,4.2946277e-07
296,0.99740916,0.0023606184,0.0001988073,3.0928364e-05,5.29002e-07
297,0.99490464,0.004822818,0.00018866146,8.182792e-05,2.0619282e-06
298,0.9997334,0.0002649986,1.1042075e-06,4.5405315e-07,4.018585e-09
299,0.9999597,4.024216e-05,5.1063165e-10,8.7200663e-10,1.2794091e-12
300,0.98766845,0.0122395735,1.7898345e-05,7.3583e-05,4.4297687e-07
301,0.925251,0.056903448,0.010196365,0.0061500194,0.0014991867
302,0.98211825,0.017813178,3.90575e-05,2.8185023e-05,1.4289066e-06
303,0.98936546,0.010605264,1.1681337e-05,1.7352422e-05,2.0297058e-07
304,0.9850032,0.014880593,8.636827e-05,2.8173698e-05,1.7605973e-06
305,0.974975,0.02449326,0.0003765027,0.0001236739,3.1599113e-05
306,0.9908242,0.008955397,9.2252405e-05,0.0001268594,1.3314939e-06
307,0.9891101,0.010578611,0.000141088,0.00016611553,4.102109e-06
308,0.99449146,0.005173395,0.00022169764,0.000110216715,3.2432606e-06
309,0.9976283,0.0014674215,0.00018008858,0.0006894208,3.480014e-05
310,0.9995435,0.00038605148,6.5193235e-05,5.1072884e-06,6.455004e-08
311,0.9980919,0.0018934448,2.1175654e-06,1.2543512e-05,2.9956045e-08
312,0.99577564,0.004179069,2.6275313e-05,1.7242803e-05,1.7616027e-06
313,0.9736283,0.026019264,0.00022092962,0.00012797942,3.576649e-06
314,0.9973667,0.0025660472,1.4073301e-05,5.2867843e-05,3.0313154e-07
315,0.8984827,0.10065016,0.0006483026,0.00016115181,5.7723864e-05
316,0.97975576,0.020023111,0.00013687677,8.321051e-05,1.0988208e-06
317,0.98681056,0.013120001,5.967844e-05,9.633991e-06,8.994617e-08
318,0.9598924,0.036746074,0.0027211022,0.0005796858,6.0800707e-05
319,0.9997969,0.00014525747,5.3415482e-05,4.3314158e-06,3.7366956e-08
320,0.9999908,9.035614e-06,7.628571e-08,5.622968e-09,1.8403817e-10
321,0.998828,0.0011685876,1.9032472e-06,1.5672834e-06,9.740814e-09
322,0.99656725,0.003354882,5.5138316e-05,2.1844813e-05,8.287249e-07
323,0.9945233,0.002039847,0.0029051683,0.0005253399,6.2866648e-06
324,0.99755776,0.0023308084,6.646542e-05,4.3609998e-05,1.2708352e-06
325,0.9944893,0.005501152,2.7733981e-06,6.6697953e-06,1.3552229e-08
326,0.9738316,0.025741925,0.00023564308,0.00018015745,1.0536142e-05
327,0.991189,0.006756772,0.0013124929,0.0003784459,0.0003632315
328,0.9987564,0.0010480846,0.00012861224,6.1655766e-05,5.2732166e-06
329,0.50275135,0.0012577361,0.0015743015,0.49440536,1.1250381e-05
330,0.9991794,0.00079978455,1.3288523e-05,6.7961814e-06,6.5476735e-07
331,0.97126734,0.0028465264,0.00043225766,0.025440093,1.3788418e-05
332,0.9984285,0.0010283213,0.00050974195,3.25432e-05,8.0515923e-07
333,0.94892853,0.048926726,0.0017049366,0.00039410236,4.5740027e-05
334,0.95721245,0.04245794,0.00021434049,0.00010721262,7.936821e-06
335,0.9976688,0.0017290534,0.0005278634,7.1230366e-05,3.0614492e-06
336,0.97328556,0.02541261,0.0005511761,0.00071887806,3.1783216e-05
337,0.93298304,0.06638675,0.00041710818,0.0001884618,2.4728917e-05
338,0.9723902,0.025777044,0.0011690177,0.00062235544,4.1406616e-05
339,0.9768738,0.022640375,5.6147128e-05,0.00042416446,5.5209707e-06
340,0.99996066,3.4562785e-05,4.373871e-06,2.87291e-07,5.9644606e-08
341,0.9973455,0.0014616178,4.6538287e-07,0.0011923902,1.0057006e-08
342,0.99846196,0.0010548943,0.00022545512,0.00025677728,9.250612e-07
343,0.93023735,0.06969867,3.9806077e-05,1.9206016e-05,5.0067924e-06
344,0.9724727,0.023621032,0.0033913315,0.00046882476,4.6186873e-05
345,0.096825585,0.001549862,0.8970072,0.003990481,0.00062684977
346,0.9995896,0.00025960186,7.384561e-05,1.4909863e-05,6.2008476e-05
347,0.99865735,0.0012167917,7.043909e-05,5.093686e-05,4.448721e-06
348,0.9986778,0.0013171908,1.8921538e-06,3.1249822e-06,3.8324117e-09
349,0.9996872,0.00020011682,0.000105455256,7.3238302e-06,4.18255e-08
350,0.9933343,0.006494648,0.0001131083,4.7656056e-05,1.0203832e-05
351,0.98431903,0.009044781,0.0048695826,0.0015452863,0.00022135055
352,0.9888276,0.0106676575,0.0003528526,0.00014245974,9.40471e-06
353,0.9923994,0.007559055,2.4238147e-05,1.4090498e-05,3.1893808e-06
354,0.9969495,0.0017249701,0.000392627,0.0008140993,0.0001188274
355,0.9836911,0.0161459,8.3654675e-05,7.831891e-05,1.0264386e-06
356,0.9774439,0.022492943,3.327869e-05,2.888803e-05,9.277456e-07
357,0.9842539,0.015236754,0.0004234226,8.2237086e-05,3.591934e-06
358,0.99593616,0.004040812,1.5586727e-05,7.0604556e-06,3.2984673e-07
359,0.9158026,0.083483,0.00045779822,0.00019245179,6.416886e-05
360,0.99910516,0.000876106,1.6463608e-05,2.2647878e-06,3.106487e-08
361,0.999015,0.00096990366,3.7599636e-07,1.4702159e-05,5.303117e-09
362,0.995673,0.0020961817,0.0007790544,0.0002068206,0.0012450215
363,0.9896708,0.007317612,0.0026161363,0.00035055648,4.4964247e-05
364,0.96197945,0.03740552,0.0005091691,9.953728e-05,6.3229663e-06
365,0.9962132,0.003683945,3.572821e-05,6.520776e-05,1.8812142e-06
366,0.97178966,0.02773095,0.00034067166,0.00013060382,8.081693e-06
367,0.99588686,0.0035406959,0.00039626786,0.00015090582,2.5230198e-05
368,0.97832537,0.020398235,0.0008543968,0.0004136941,8.328788e-06
369,0.98944455,0.010496483,1.7018885e-05,4.184923e-05,1.5046825e-07
370,0.9988745,0.0010517677,6.760327e-05,5.928079e-06,1.2132254e-07
371,0.99983764,0.00014820744,6.732083e-08,1.4160507e-05,1.4249563e-11
372,0.99761707,0.0022194535,0.00010327803,5.9890164e-05,2.5782276e-07
373,0.9903108,0.0075103357,0.0016070828,0.0005563859,1.5352038e-05
374,0.99998415,1.5441898e-05,2.5090503e-07,1.3036535e-07,4.382907e-11
375,0.9573318,0.029328011,0.012007211,0.0012303517,0.000102656355
376,0.99753785,0.002393093,4.5279252e-05,2.1830147e-05,2.0371456e-06
377,0.9982022,0.0017522726,1.9603252e-05,2.5301906e-05,5.852104e-07
378,0.9855898,0.014273738,0.00012279298,1.3539334e-05,2.015153e-07
379,0.99786,0.0019762148,0.00012379982,3.8161787e-05,1.8167189e-06
380,0.99909425,0.0008924867,5.8194166e-07,1.2650364e-05,2.2865345e-08
381,0.99652654,0.0032937287,9.612842e-06,0.00016961413,4.50916e-07
382,0.9884384,0.01144726,8.3705934e-05,2.8755867e-05,1.9207937e-06
383,0.9929584,0.0069158613,6.561652e-05,5.9309154e-05,8.593788e-07
384,0.5771798,0.422254,0.00032312857,0.00022322455,1.9844018e-05
385,0.9947983,0.0012629523,0.0030638156,0.0008726555,2.2400534e-06
386,0.96656793,0.031027384,0.002167877,0.00020777178,2.9035691e-05
387,0.9995801,0.00023291475,0.00016947639,1.7313401e-05,8.702728e-08
388,0.9824318,0.015409541,0.0012967319,0.0007490118,0.00011289961
389,0.9995253,0.00046486757,7.5114667e-06,2.4224623e-06,7.4050504e-09
390,0.98601365,0.013943026,9.350281e-06,3.3837536e-05,1.6428841e-07
391,0.9936819,0.006257738,3.4122226e-05,2.596984e-05,3.492095e-07
392,0.43932372,0.06435212,0.12072312,0.03297526,0.34262574
393,0.99816763,0.0017821221,3.5237863e-05,1.4824583e-05,6.78937e-08
394,0.9993135,0.0006804675,4.355187e-06,1.6915607e-06,1.5175349e-08
395,0.98806804,0.011352167,0.0003710865,0.00020159179,7.0990773e-06
396,0.9940545,0.005108416,0.00069766154,0.00013439823,4.9225096e-06
397,0.99933356,0.0006353795,2.4804382e-05,5.605461e-06,5.967731e-07
398,0.9931258,0.006800722,6.5294524e-05,8.08695e-06,1.3362417e-07
399,0.9962037,0.0037273758,5.5706205e-05,1.2993271e-05,2.2505922e-07
400,0.99856585,0.0013154779,0.00010813392,9.751972e-06,8.100856e-07
401,0.96813846,0.0015599664,0.00032828012,0.02996499,8.27489e-06
402,0.9950712,0.0047333105,9.985674e-05,9.490145e-05,6.725247e-07
403,0.9992217,0.00072179775,5.1882704e-05,3.85975e-06,6.8237625e-07
404,0.99966574,0.00027004306,5.9585378e-05,4.650728e-06,1.6390315e-08
405,0.99603915,0.0035110533,0.00040840305,4.0881416e-05,5.2871894e-07
406,0.99018973,0.009690288,9.9431636e-05,2.0315656e-05,3.1077036e-07
407,0.9953442,0.0046521644,1.6584472e-06,1.8884223e-06,6.2047274e-09
408,0.9978517,0.0020526433,7.131429e-06,8.8405504e-05,6.0678936e-08
409,0.97819406,0.021661164,9.86323e-05,4.4375483e-05,1.7988564e-06
410,0.99911934,0.00084468606,2.5427402e-05,1.0418391e-05,8.0817706e-08
411,0.99976295,0.00021817345,9.4918185e-08,1.8726514e-05,1.539074e-10
412,0.99983656,0.00016339986,3.3455017e-09,5.715616e-09,1.50817e-11
413,0.9980233,0.0017089688,0.0002265572,4.0495655e-05,6.726717e-07
414,0.99879813,0.0010336896,0.00013882526,2.874487e-05,6.039839e-07
415,0.9676935,0.031879053,0.00030047767,0.00010688919,2.0019785e-05
416,0.99960214,0.0003170947,7.336534e-05,7.373784e-06,2.9791188e-08
417,0.999225,0.00077029614,3.4843627e-06,1.1269644e-06,3.8365034e-08
418,0.99214315,0.0073892344,0.0003089896,0.00015576184,2.9877122e-06
419,0.99794954,0.0020329948,2.8442003e-06,1.4483048e-05,6.800495e-08
420,0.9897597,0.010231358,3.6407937e-06,5.3306644e-06,3.136606e-08
421,0.9910884,0.0084881,9.719848e-05,0.00031594373,1.0270421e-05
422,0.9837451,0.0110205375,0.0035540091,0.0015733375,0.00010699001
423,0.9998404,0.00013612826,2.1553062e-05,1.9131382e-06,1.1678061e-08
424,0.99155515,0.008271182,0.00014326199,2.9114488e-05,1.3154157e-06
425,0.9942814,0.0056901816,7.5693492e-06,2.0823109e-05,2.4727107e-09
426,0.99955755,0.0003278129,0.000100047015,1.1787997e-05,2.7990936e-06
427,0.99778783,0.0020275079,0.00013228136,5.1609863e-05,6.5958983e-07
428,0.9976102,0.0018087511,0.00049843534,7.884854e-05,3.828463e-06
429,0.99772114,0.0018851935,0.0002831394,8.671931e-05,2.3735543e-05
430,0.9951828,0.0047461037,1.8864826e-05,5.1998908e-05,2.8029856e-07
431,0.99118656,0.0014686806,0.00021570694,0.0071245334,4.4899593e-06
432,0.997479,0.0016829576,0.00028300186,0.00023954165,0.00031558797
433,0.9993111,0.0006348949,5.102044e-05,2.8506704e-06,1.3397512e-07
434,0.9625457,0.036691327,0.00052573084,0.00021890215,1.8406787e-05
435,0.99873596,0.0011479341,3.8555527e-06,0.00011207605,1.1276031e-07
436,0.98875624,0.010091715,0.0008340816,0.00027312333,4.4809905e-05
437,0.98800653,0.011949122,1.1803407e-05,3.2413296e-05,1.7709299e-07
438,0.9373557,0.014914373,0.039323393,0.0056291004,0.0027774186
439,0.9976185,0.0023658166,1.0696674e-05,4.8234288e-06,9.020525e-08
440,0.97340626,0.026480092,6.165863e-05,4.9725964e-05,2.2470872e-06
441,0.99708277,0.0019015397,0.00089754903,0.000116437666,1.711526e-06
442,0.99819607,0.0012635593,0.00023174578,0.00027231485,3.6328245e-05
443,0.99788445,0.0014235284,0.00055164326,0.00013953514,8.19724e-07
444,0.9976909,0.0022799766,1.6408147e-05,1.2435178e-05,1.8611738e-07
445,0.99995923,4.021809e-05,3.3476546e-09,5.620287e-07,5.880776e-13
446,0.9750201,0.024002401,0.00022817495,0.0007458333,3.4563006e-06
447,0.99980134,0.00019728688,1.065361e-08,1.4324003e-06,4.5237763e-12
448,0.99231225,0.006446411,0.0002821297,0.0009275986,3.162384e-05
449,0.99154776,0.00833497,8.371147e-05,3.1686268e-05,1.8396153e-06
450,0.9573889,0.03220583,0.0071454616,0.0028758748,0.00038390257
451,0.9971072,0.002812738,6.6379354e-05,1.0313986e-05,3.4951197e-06
452,0.9997054,0.00028320996,1.08076016e-07,1.12901635e-05,5.0345426e-11
453,0.99781126,0.0020532338,9.9195604e-05,3.617705e-05,9.6309726e-08
454,0.99625933,0.0036607417,9.169977e-06,7.056355e-05,2.8386802e-07
455,0.9928763,0.0071061645,1.5201874e-05,2.238789e-06,1.4122472e-07
456,0.9728431,0.025415182,0.0011550306,0.0005084634,7.823829e-05
457,0.9969386,0.0027039638,0.00013683637,0.00020784915,1.2821829e-05
458,0.9942259,0.0054573407,0.00020021663,0.00011483799,1.7258354e-06
459,0.9994272,0.0005706276,1.0306518e-06,1.1121621e-06,1.1070668e-08
460,0.9939308,0.0060547623,1.1876731e-05,2.5125696e-06,1.0844332e-07
461,0.98585457,0.0140340915,6.4493615e-05,4.60908e-05,6.6873827e-07
462,0.9976947,0.0016851904,0.0005424245,7.4588024e-05,3.0760154e-06
463,0.99757487,0.0023445727,7.590932e-06,7.277214e-05,1.702658e-07
464,0.9986224,0.00094489875,9.659959e-06,0.00042308148,1.8037928e-08
465,0.9909951,0.008873722,6.762925e-05,6.3000785e-05,4.4408966e-07
466,0.9955852,0.0031082022,0.0010977536,0.00020641262,2.3355756e-06
467,0.9778842,0.021708025,0.0002031995,0.00020201334,2.729682e-06
468,0.9979856,0.00039961888,1.0761336e-05,0.0016035385,4.195639e-07
469,0.9973111,0.0013525478,7.276893e-05,0.0012563461,7.213543e-06
470,0.9918351,0.0077992924,8.896264e-05,0.0002759449,6.9250285e-07
471,0.9994562,0.00042635025,0.00010710242,1.0253998e-05,1.1604152e-07
472,0.99723595,0.002598098,0.00011472084,5.094072e-05,2.9561704e-07
473,0.931621,0.01872098,0.038848512,0.00977854,0.0010309522
474,0.922773,0.073781386,0.0028991539,0.00046843325,7.795496e-05
475,0.93160737,0.068149365,0.00017747906,5.0564457e-05,1.5359203e-05
476,0.9995328,0.0002823155,0.00017321856,1.164713e-05,8.043447e-08
477,0.9997545,0.00023506836,9.213018e-06,1.3073009e-06,4.227174e-09
478,0.99963903,0.0002891553,6.20281e-05,9.666825e-06,7.299623e-08
479,0.9995084,0.0004911483,2.3464645e-07,2.8782787e-07,4.72236e-09
480,0.9464296,0.052998856,0.00034877766,0.00019930373,2.3427294e-05
481,0.999821,0.00014964397,2.7943375e-05,1.2216146e-06,1.1502605e-07
482,0.9873367,0.0012297167,0.0001931357,0.011233803,6.556047e-06
483,0.99369323,0.0029456632,0.002459428,0.00076320616,0.00013849714
484,0.9917818,0.007996849,5.6258035e-05,0.00016349048,1.6353133e-06
485,0.943711,0.018508911,0.011410444,0.002512549,0.023857085
486,0.9934782,0.0048784376,0.0012691548,0.00033945643,3.471065e-05
487,0.9877221,0.003522508,0.00037233118,0.008355001,2.8185532e-05
488,0.9987583,0.0012291856,8.569771e-06,3.853544e-06,6.1855204e-08
489,0.9689428,0.029718578,0.0008325554,0.00047619818,2.9796092e-05
490,0.9853725,0.014342861,0.00020306295,7.606702e-05,5.479386e-06
491,0.9115144,0.087722495,0.000588294,0.00014014465,3.4650107e-05
492,0.99161315,0.008169126,0.00016698152,4.693098e-05,3.8097587e-06
493,0.9939938,0.00582258,0.00011916918,6.200508e-05,2.44852e-06
494,0.9994686,0.0003322278,0.00018479962,1.4349332e-05,1.3623831e-07
495,0.9994822,0.0005178045,1.7536502e-08,3.2352407e-08,4.6031814e-11
496,0.98601925,0.013804792,0.00013932883,3.4824498e-05,1.7918157e-06
497,0.85511136,0.1438836,0.00039290913,0.00057585,3.6420985e-05
498,0.99885607,0.0011356873,1.187325e-06,6.9918065e-06,1.9111562e-08
499,0.9834674,0.011049398,0.004239282,0.0012331444,1.084158e-05
500,0.99928755,0.0007022639,5.309116e-06,4.288671e-06,6.431212e-07
501,0.9943527,0.005579345,2.2846869e-05,4.4776985e-05,2.9646372e-07
502,0.9981469,0.00172791,1.2816978e-05,0.00011214035,2.461034e-07
503,0.9952166,0.0014275349,0.000177859,0.0031755986,2.3779903e-06
504,0.995109,0.0048805517,4.032105e-06,6.33372e-06,8.6428564e-08
505,0.99047893,0.0043002046,0.00275193,0.0018866077,0.00058236887
506,0.99984324,0.00013107668,1.818821e-05,7.438317e-06,1.3338762e-08
507,0.99981564,0.00018076783,3.4441978e-06,1.3031205e-07,1.1990933e-10
508,0.9976036,0.0023746714,9.168183e-06,1.0442044e-05,2.1500239e-06
509,0.9979317,0.00206779,1.660604e-07,2.6345364e-07,5.538264e-10
510,0.99050856,0.0054538576,0.0011263499,0.0028839917,2.717176e-05
511,0.9965333,0.0034100078,1.0968949e-05,4.5618563e-05,1.3645962e-07
512,0.9914569,0.008344809,0.00014490084,4.871154e-05,4.6186215e-06
513,0.96210134,0.03616832,0.000979011,0.00071782636,3.3472832e-05
514,0.9984158,0.0015325095,2.6527118e-06,4.888937e-05,1.2413905e-07
515,0.99343634,0.0063734725,0.0001394228,4.9772836e-05,9.813501e-07
516,0.9978532,0.0021200285,1.384948e-05,1.2645608e-05,2.7568333e-07
517,0.959607,0.032976784,0.0049763033,0.0020828766,0.0003570401
518,0.99776363,0.0017512206,0.00042137253,6.113351e-05,2.6319246e-06
519,0.9539817,0.006324476,0.03496235,0.0046692663,6.2237465e-05
520,0.9948226,0.0036575287,0.00065410766,0.00082352886,4.2266285e-05
521,0.99860305,0.0013299882,3.126419e-05,3.5380104e-05,3.6075608e-07
522,0.96828085,0.029462637,0.002016336,0.0002180571,2.2175213e-05
523,0.99188775,0.00808709,1.8561772e-05,6.413456e-06,1.9447876e-07
524,0.98392767,0.015300283,0.00037625642,0.00039276673,3.0991005e-06
525,0.9954652,0.0012911861,0.0030349144,0.00020591768,2.716066e-06
526,0.9948578,0.003954524,6.583752e-05,0.0011208429,1.0282689e-06
527,0.941965,0.029930739,0.00864164,0.016057907,0.0034048185
528,0.9945174,0.0054761926,1.995261e-06,4.4288086e-06,7.8410025e-09
529,0.8846683,0.11110797,0.0028121388,0.0012768479,0.00013470539
530,0.9962203,0.0037353379,2.9883524e-05,1.4331807e-05,1.9532078e-07
531,0.9828432,0.01516794,0.001717972,0.00021444472,5.645931e-05
532,0.9920364,0.007872258,3.6652982e-05,5.2421965e-05,2.3532307e-06
533,0.999134,0.0005853996,0.0002191684,6.128792e-05,1.3205235e-07
534,0.998836,0.0010717851,6.343389e-05,2.8763865e-05,8.9320515e-08
535,0.95487595,0.039240375,0.0020782517,0.0033423055,0.00046306037
536,0.9995915,0.0003988216,8.139467e-06,1.5288781e-06,1.2127996e-08
537,0.96645564,0.03344405,5.7619724e-05,4.195648e-05,8.401541e-07
538,0.9703621,0.020827722,0.0047836495,0.0019952422,0.0020312844
539,0.9931798,0.006780213,2.4910227e-05,1.4953699e-05,1.3922902e-07
540,0.9997266,0.00026678015,6.232127e-06,3.6665358e-07,8.753329e-09
541,0.9842369,0.013343885,0.0021688954,0.00022395475,2.6455735e-05
542,0.9981944,0.0018008848,3.8506373e-06,7.7480615e-07,1.4727985e-07
543,0.99995947,3.9511593e-05,7.542569e-07,3.3417896e-07,5.301258e-10
544,0.97238797,0.025045253,0.0022567485,0.00029207196,1.798584e-05
545,0.9569264,0.042898305,6.259179e-05,0.00010524392,7.5724906e-06
546,0.97492564,0.023233535,0.0009477546,0.00085500826,3.795761e-05
547,0.9761865,0.023369752,0.00025706482,0.00016283378,2.3810902e-05
548,0.9985921,0.0013057195,4.103937e-06,9.79424e-05,7.200071e-08
549,0.96083856,0.039012756,9.316834e-05,5.357484e-05,1.9072304e-06
550,0.99631727,0.0017324017,0.00058359373,0.001356306,1.0499683e-05
551,0.9985733,0.0013823027,3.721168e-05,7.076856e-06,1.6596366e-07
552,0.97641116,0.015262324,0.0059558335,0.002067502,0.00030310045
553,0.99936086,0.00051905174,0.000102666054,1.7452654e-05,4.7785164e-08
554,0.99867743,0.0012940723,1.47127175e-05,1.251481e-05,1.1418344e-06
555,0.9924446,0.0066410964,0.00028245916,0.0006227245,9.106343e-06
556,0.98975474,0.010193582,9.43071e-06,4.207255e-05,1.7167645e-07
557,0.9920035,0.0066467095,0.00077962247,0.00051249226,5.7701476e-05
558,0.97851986,0.02074475,0.0005128598,0.00020525123,1.7291743e-05
559,0.9899805,0.009959107,3.3811026e-05,2.0914587e-05,5.564162e-06
560,0.9791474,0.020158596,0.00036440167,0.00031653172,1.306293e-05
561,0.99628603,0.0036681807,2.1286583e-05,2.4376322e-05,1.6410294e-07
562,0.9998534,0.00014404452,2.4071876e-06,1.2664756e-07,3.741546e-10
563,0.99637306,0.0026524942,0.00077966123,0.00017089152,2.3828421e-05
564,0.9890077,0.010944712,1.1033961e-05,3.6488982e-05,1.5191922e-07
565,0.9987902,0.0011390251,6.50858e-05,5.6601984e-06,9.2099626e-08
566,0.95587367,0.043929726,0.0001412854,5.3119635e-05,2.1302776e-06
567,0.989449,0.010535055,9.163897e-06,6.6125663e-06,8.9145466e-08
568,0.9636657,0.016553799,0.013850733,0.0057177357,0.00021210704
569,0.6891255,0.30781448,0.0018503681,0.0010657577,0.00014387062
570,0.9989059,0.0010790292,5.5529165e-07,1.45480335e-05,3.3911213e-08
571,0.9996075,0.0003881458,3.996599e-06,3.5863175e-07,3.9921058e-09
572,0.9939896,0.0059920116,1.0217422e-05,7.3131973e-06,8.1098966e-07
573,0.9828498,0.002074793,0.00024006801,0.014829361,6.084193e-06
574,0.9409418,0.05855526,0.00031259042,0.00014702103,4.3367665e-05
575,0.9989485,0.0010197599,2.7317179e-05,4.463555e-06,2.5345209e-08
576,0.9684759,0.03119445,0.00018690145,0.00013860106,4.1005947e-06
577,0.99513984,0.0032583135,4.3727665e-05,0.0015516337,6.565755e-06
578,0.97006065,0.029341046,9.111597e-05,0.000112784895,0.00039445807
579,0.9985953,0.0013620317,2.3824118e-06,4.021762e-05,1.5943174e-08
580,0.981724,0.0054229777,0.011005613,0.0018228326,2.4540688e-05
581,0.9947754,0.0031303742,0.0014061625,0.00056131853,0.0001267152
582,0.99879503,0.00083062786,7.978831e-05,0.00025968463,3.4937904e-05
583,0.9997291,0.0002709221,1.8065704e-08,1.8466908e-08,9.8351154e-11
584,0.9963033,0.0034570661,0.00021501849,2.2626718e-05,1.8675412e-06
585,0.99973553,0.00019482427,6.434281e-05,5.246873e-06,4.7752685e-08
586,0.9863587,0.009748416,0.0027480864,0.00073108135,0.00041364125
587,0.9965411,0.0030785303,0.00027176432,0.00010089958,7.76993e-06
588,0.98077536,0.017067865,0.001501947,0.00059589965,5.891325e-05
589,0.9885289,0.0109500345,0.00032501912,0.00018072035,1.528489e-05
590,0.9900842,0.009888466,2.4516421e-05,2.9149878e-06,4.6019228e-08
591,0.98850495,0.0012649941,0.00014763893,0.0100802975,2.0707869e-06
592,0.9982022,0.0017194594,1.1179402e-05,6.6374276e-05,6.9385857e-07
593,0.9724674,0.02389344,0.0030773936,0.0005045419,5.726105e-05
594,0.9936445,0.006280987,3.245628e-05,4.1713098e-05,3.2392916e-07
595,0.9924925,0.0037247122,0.0019314018,0.001620863,0.00023061287
596,0.9876167,0.012314143,1.9456562e-05,4.942933e-05,2.5127468e-07
597,0.9952448,0.0047025555,4.444079e-05,8.069747e-06,6.715489e-08
598,0.9800023,0.0048675435,0.013785416,0.0010432183,0.00030157415
599,0.97668266,0.014931568,0.0015324566,0.0066404273,0.00021296405
600,0.9916909,0.008198074,8.6041015e-05,2.4412673e-05,5.6800695e-07
601,0.9683262,0.004163202,0.021542598,0.0058365385,0.00013147913
602,0.96387124,0.023029247,0.009708136,0.0033278172,6.365613e-05
603,0.9990632,0.00083270937,9.468831e-05,9.068417e-06,3.3272875e-07
604,0.9765786,0.02328788,8.644195e-05,4.4503042e-05,2.531844e-06
605,0.997463,0.0021657646,0.0001955983,0.00017411863,1.5409704e-06
606,0.9857756,0.013723165,0.00032501644,0.0001742821,2.0442617e-06
607,0.99625266,0.0037141354,2.6755813e-05,6.4230667e-06,4.281824e-08
608,0.95707005,0.04259224,0.00021777253,0.000119276374,6.708464e-07
609,0.9995394,0.00046059728,8.18943e-09,1.0199494e-08,2.4445635e-11
610,0.9948449,0.00506776,6.9606656e-05,1.743946e-05,2.2887868e-07
611,0.996644,0.0029987458,0.00024564398,0.00011033862,1.2573588e-06
612,0.9937383,0.0040828153,0.0016256542,0.0005312398,2.206853e-05
613,0.96358836,0.006276491,0.0073442515,0.0023626068,0.0204282
614,0.99756086,0.0013646883,0.0010106615,5.836716e-05,5.320549e-06
615,0.9969099,0.00092231185,0.00012747898,0.0020336718,6.6246794e-06
616,0.99849427,0.001322025,3.5280435e-05,0.00014121963,7.125025e-06
617,0.99601895,0.0037048114,0.00016544641,0.00010524952,5.624123e-06
618,0.99839574,0.0014974964,3.4816171e-06,0.00010331557,4.5361016e-08
619,0.9998424,0.0001563847,1.1140162e-08,1.2090791e-06,2.9938547e-12
620,0.9868183,0.012769037,0.00016743956,9.000424e-05,0.00015530827
621,0.9867669,0.011175564,0.0013053083,0.0003888969,0.00036320844
622,0.99425536,0.0055115954,0.00010492709,0.00012792645,1.774309e-07
623,0.9892124,0.010447302,3.120404e-05,0.00030835756,7.0954565e-07
624,0.9909553,0.008743848,8.867612e-05,0.00020462908,7.5905687e-06
625,0.9989322,0.0006937779,4.411719e-05,0.00031669732,1.3245321e-05
626,0.99535745,0.0045795324,2.8145068e-05,3.4626526e-05,2.8237176e-07
627,0.99943525,0.00018765108,0.00033480188,3.240958e-05,9.893087e-06
628,0.9868101,0.012938237,0.00019883092,4.9817263e-05,3.006283e-06
629,0.9962058,0.0037045544,5.0160153e-05,3.262406e-05,6.901354e-06
630,0.8703306,0.018050835,0.040798828,0.0150541905,0.055765595
631,0.9998925,0.00010282652,1.8458165e-08,4.608153e-06,3.6223244e-12
632,0.9957819,0.004197903,1.5054917e-05,4.995155e-06,1.2512749e-07
633,0.9863089,0.013680286,2.9080406e-06,7.752127e-06,1.2234891e-07
634,0.99428153,0.0057102335,6.516631e-06,1.8329642e-06,1.7006327e-08
635,0.9819296,0.01787041,0.00012937264,6.680702e-05,3.7116447e-06
636,0.9984376,0.0015570637,1.8350033e-06,3.5013554e-06,3.6245954e-08
637,0.9740321,0.024237426,0.001527599,0.0002004828,2.3325847e-06
638,0.99578,0.0042153746,8.591242e-07,3.7654706e-06,1.305741e-08
639,0.99324656,0.003381637,0.002286036,0.00094354677,0.00014219011
640,0.94725436,0.052294444,0.00023266024,0.00020821247,1.0445182e-05
641,0.9749919,0.002757097,0.017098784,0.005107959,4.43095e-05
642,0.9987664,0.0008334665,0.00019324511,0.00020502658,1.934304e-06
643,0.9991198,0.00083354284,4.0864114e-05,5.663746e-06,1.2404521e-07
644,0.9944583,0.003965287,0.0003820049,0.0011250895,6.9208014e-05
645,0.9799573,0.018146645,0.0010514534,0.000821743,2.2888296e-05
646,0.9905884,0.009395703,1.4528836e-05,1.2904227e-06,4.9299533e-08
647,0.99790025,0.0020521728,3.3992387e-06,4.4172604e-05,2.7332437e-08
648,0.99894553,0.0006617061,0.0003485048,4.329542e-05,9.745911e-07
649,0.99702495,0.002688429,0.00011778887,0.00014474164,2.4125078e-05
650,0.9846277,0.015101952,0.00017002215,9.7914126e-05,2.2992897e-06
651,0.9918811,0.00793962,0.00015396858,2.4147317e-05,1.2287462e-06
652,0.9944617,0.003612148,0.0016471111,0.000258502,2.0519135e-05
653,0.9998274,0.00017177322,7.205222e-07,6.5699496e-08,6.233385e-10
654,0.99926096,0.00062326895,9.448323e-05,2.1315742e-05,4.4858478e-08
655,0.9999882,1.0975282e-05,2.2076688e-10,8.2631965e-07,1.0522252e-14
656,0.991928,0.0065127453,0.0013463709,0.0002022942,1.0687472e-05
657,0.9786821,0.020948598,0.00021154011,0.00015597245,1.8777213e-06
658,0.99794406,0.0020439147,2.313146e-06,9.573041e-06,6.872344e-08
659,0.9964055,0.0035500866,4.2029956e-06,3.930071e-05,1.0089971e-06
660,0.9997352,0.00025838116,3.6641607e-06,2.1356682e-06,6.1795987e-07
661,0.9958269,0.0038203935,2.4582969e-05,0.00032797866,1.1174539e-07
662,0.9873267,0.012403117,5.5242468e-05,0.00021430927,7.0961823e-07
663,0.99880505,0.0010908728,8.207315e-05,2.1843394e-05,6.6559146e-08
664,0.9844774,0.0021784292,0.00026706385,0.013068745,8.360343e-06
665,0.99264467,0.0072903396,2.6114158e-05,3.8439543e-05,3.7065644e-07
666,0.9870661,0.012665926,0.0001894387,7.778776e-05,7.152222e-07
667,0.9992872,0.000681987,1.982878e-06,2.8679186e-05,2.0079638e-07
668,0.9576454,0.008487889,0.012089684,0.01673888,0.00503811
669,0.98958963,0.009769955,5.2389812e-05,0.00058770215,3.620329e-07
670,0.99582577,0.0040119397,5.019891e-05,0.0001116091,4.214846e-07
671,0.9996282,0.0003642538,5.8658015e-06,1.4780787e-06,1.16007826e-07
672,0.9967123,0.0030221508,0.0002342505,3.0111954e-05,1.235108e-06
673,0.98423135,0.015572646,9.383131e-05,0.000100896876,1.2300261e-06
674,0.99802375,0.001793487,0.00015014075,3.1980842e-05,6.071062e-07
675,0.9813942,0.016126214,0.001209888,0.0011827704,8.6974884e-05
676,0.99815875,0.0018256973,6.365406e-06,9.079218e-06,1.6936013e-07
677,0.9992536,0.0005562874,9.942932e-05,8.936141e-05,1.3606367e-06
678,0.9863304,0.013571922,5.1316994e-05,4.528817e-05,1.0381286e-06
679,0.9902468,0.006867194,0.0012505553,0.0011496558,0.0004857696
680,0.99304307,0.0068277405,1.6124697e-05,0.0001128121,3.8376712e-07
681,0.98821974,0.011510819,0.00018410049,8.2005936e-05,3.2461144e-06
682,0.9952329,0.0046118414,9.448422e-06,0.00014575152,6.373988e-08
683,0.9967044,0.003250301,6.4931387e-06,3.880809e-05,4.996284e-08
684,0.9753949,0.024575492,1.8898865e-05,1.0543299e-05,1.1769203e-07
685,0.98569065,0.014216797,6.588646e-05,2.5647369e-05,1.0450108e-06
686,0.99969304,0.0003070204,4.286949e-09,2.1278719e-09,2.225548e-11
687,0.9932555,0.006693531,2.2583481e-05,2.8100398e-05,1.8542767e-07
688,0.99820733,0.0017593051,2.2844995e-05,1.0402419e-05,1.2375004e-07
689,0.976309,0.023636831,2.7781687e-05,2.6029726e-05,2.9988874e-07
690,0.9926656,0.0069060824,0.00025643292,0.00015658264,1.5377747e-05
691,0.9845436,0.010994339,0.0033015257,0.001149646,1.091303e-05
692,0.9962507,0.0030336224,0.0006314688,8.371272e-05,5.3381973e-07
693,0.99681735,0.0030364715,0.00012043237,2.5591278e-05,8.676292e-08
694,0.9999751,2.1765036e-05,6.3154376e-10,3.0756808e-06,2.8279366e-14
695,0.9998118,9.904392e-05,8.655406e-05,2.511971e-06,1.0395865e-07
696,0.9927153,0.007160915,2.454765e-05,9.886572e-05,3.10059e-07
697,0.9985826,0.0014157868,1.3736717e-06,3.2997247e-07,1.7701897e-09
698,0.9786598,0.02116494,5.383991e-05,0.000120992256,4.0633134e-07
699,0.99296945,0.0061224713,0.0006661527,0.00023835865,3.5161909e-06
700,0.95464873,0.036062,0.008387468,0.0008742625,2.7564054e-05
701,0.9980495,0.0019320505,1.3527626e-05,4.4815756e-06,4.1911122e-07
702,0.9960794,0.0038245558,3.5503905e-05,5.9573806e-05,9.3863355e-07
703,0.9992061,0.00074637536,4.0650277e-05,6.715703e-06,1.071158e-07
704,0.99931264,0.0002536599,0.00042278,9.205882e-06,1.7987899e-06
705,0.98942286,0.0105353845,1.4285531e-05,2.7312883e-05,8.292681e-08
706,0.98043424,0.019368926,0.00015242877,2.5471873e-05,1.8924504e-05
707,0.8947458,0.101403035,0.0013790282,0.0008104817,0.0016615769
708,0.99944097,0.0004684361,1.5038559e-05,7.361049e-05,1.8844446e-06
709,0.9697418,0.030115565,8.233097e-05,5.754983e-05,2.7312637e-06
710,0.9677337,0.0027893155,0.0039318455,0.001836841,0.02370826
711,0.9751355,0.024417657,0.00040959194,3.633311e-05,9.362978e-07
712,0.9924281,0.007436297,8.415369e-05,5.0662842e-05,7.453086e-07
713,0.99875,0.00059851655,0.0005243276,0.00012652755,6.482863e-07
714,0.9948383,0.0044483854,0.00055752625,0.00015304596,2.746315e-06
715,0.999161,0.0004860518,0.00033318737,1.9466617e-05,1.9999516e-07
716,0.99337727,0.00565494,0.0006593522,0.0002995448,8.982699e-06
717,0.9842755,0.0031200703,0.011112776,0.0014604715,3.124644e-05
718,0.9511827,0.048453975,0.00025277576,0.00010715587,3.3505262e-06
719,0.9968272,0.0030379426,9.64545e-05,3.8062928e-05,3.1485445e-07
720,0.999014,0.0009852371,4.511638e-07,2.4148687e-07,3.5361731e-09
721,0.9881334,0.01007672,0.0010769236,0.0004968336,0.00021609815
722,0.9950664,0.004930892,9.464747e-07,1.8040656e-06,6.0990866e-09
723,0.9945745,0.0033543175,0.0017116751,0.00023552317,0.00012396248
724,0.9966918,0.0027526468,0.00028683693,0.00013129045,0.00013735038
725,0.9889221,0.0063878107,0.004101901,0.00053021143,5.804332e-05
726,0.9766441,0.023224551,8.093983e-05,4.7145695e-05,3.2085559e-06
727,0.9904807,0.009405151,7.6006974e-05,3.5391557e-05,2.8737795e-06
728,0.99959797,0.00028611234,0.0001063333,9.548673e-06,6.14613e-08
729,0.99853706,0.0009901989,0.00042918022,4.2997683e-05,4.2409818e-07
730,0.9741141,0.024195792,0.0014483698,0.00018170438,6.002773e-05
731,0.99081004,0.008503162,0.0003982388,0.00028603536,2.5684803e-06
732,0.997929,0.0020499795,4.2517363e-06,1.6625296e-05,1.9615949e-07
733,0.99876773,0.0011215999,7.874138e-05,2.9711993e-05,2.2341023e-06
734,0.99274206,0.006880029,0.0002967321,7.883626e-05,2.2914069e-06
735,0.6407522,0.06823481,0.26038185,0.023347067,0.0072841295
736,0.99799323,0.0018399062,0.00013780239,2.8872282e-05,2.2597088e-07
737,0.9954502,0.004337618,0.00014457396,6.724762e-05,3.855774e-07
738,0.9739075,0.008944866,0.015553737,0.0015459986,4.7941536e-05
739,0.9942463,0.0045647346,0.00044083133,0.00060977694,0.00013839053
740,0.99873227,0.0012253228,2.9963077e-05,1.1953377e-05,4.178095e-07
741,0.9997322,0.00026755242,1.511872e-07,5.0818436e-08,1.6483184e-10
742,0.9495208,0.050287668,0.0001325204,5.2980646e-05,5.9770005e-06
743,0.9875765,0.012350487,4.1162497e-05,3.0590127e-05,1.31514e-06
744,0.9992741,0.0005929122,0.00011151066,2.1079217e-05,5.0529343e-07
745,0.9968838,0.0019954138,0.0010255468,9.174714e-05,3.4512823e-06
746,0.9811959,0.016510306,0.00070657115,0.0015578773,2.921385e-05
747,0.9955512,0.0016992415,0.0024745564,0.00026999193,4.9654755e-06
748,0.9806629,0.01568857,0.0017355987,0.0009307588,0.0009822677
749,0.99492574,0.0049779387,4.743852e-05,4.8402544e-05,5.2094606e-07
750,0.99953234,0.00045772284,8.819911e-06,1.2278917e-06,3.5532796e-08
751,0.99982435,0.00017517967,3.532655e-07,9.391354e-08,3.9588617e-09
752,0.999456,0.0005386544,1.221121e-06,4.1862836e-06,4.889596e-08
753,0.99662006,0.0019907078,0.00044859256,0.0001285471,0.00081205764
754,0.949129,0.050782938,5.899776e-05,2.8103861e-05,8.620983e-07
755,0.9936306,0.004196527,0.0009937722,0.0010062606,0.00017283257
756,0.9987332,0.0012547515,9.315405e-07,1.11413265e-05,2.8227099e-08
757,0.98909736,0.0107234055,0.00013702232,4.1507046e-05,6.7928585e-07
758,0.996662,0.00314911,0.00011440348,7.170113e-05,2.8454785e-06
759,0.9996791,0.00031613174,4.2170777e-06,5.911102e-07,6.436696e-09
760,0.9996032,0.00038344032,9.42937e-08,1.3269914e-05,1.0637708e-09
761,0.9994276,0.00051692786,5.027024e-05,5.1618686e-06,4.6554813e-08
762,0.9966092,0.002386077,0.00021903655,0.00077348977,1.2205639e-05
763,0.9815599,0.018397711,2.329324e-05,1.8872943e-05,2.073655e-07
764,0.99983764,0.00013437757,1.9326806e-05,8.740966e-06,2.31212e-08
765,0.99641573,0.0035505702,2.5788474e-06,3.117968e-05,1.5935404e-08
766,0.98474807,0.012511771,0.0018515249,0.0008548971,3.374403e-05
767,0.9996307,0.00026111453,0.00010019756,8.008618e-06,3.208227e-08
768,0.9886686,0.010088377,0.0008278209,0.00037420858,4.1002055e-05
769,0.9978542,0.0020805327,4.1014617e-05,2.2706547e-05,1.4869383e-06
770,0.98546356,0.012756032,0.0012471166,0.00045607667,7.7226076e-05
771,0.9755163,0.017707435,0.005612081,0.0008088876,0.0003552467
772,0.9948585,0.0051177624,1.996251e-05,3.6888005e-06,6.580483e-08
773,0.99195576,0.0074954657,0.0001478706,0.0003963116,4.587994e-06
774,0.9983151,0.0015665736,2.6282449e-05,9.1559e-05,4.423317e-07
775,0.985559,0.0055682543,0.0037610526,0.0050526997,5.9132148e-05
776,0.9461166,0.053635463,0.0001321616,0.000112469905,3.268611e-06
777,0.87232864,0.0039285105,0.10869092,0.013291614,0.0017603408
778,0.99874324,0.00078465434,0.00040493597,5.7269746e-05,9.974823e-06
779,0.991958,0.0076334365,0.00015208113,0.000252293,4.0955524e-06
780,0.99246407,0.007479101,4.8388294e-05,8.180273e-06,2.41307e-07
781,0.94387037,0.0063547282,0.0062678047,0.04286891,0.00063835946
782,0.973264,0.019620107,0.0025074165,0.0044278395,0.00018068081
783,0.9987923,0.0011986021,5.0019463e-07,8.565397e-06,5.868774e-09
784,0.9783351,0.012090311,0.007199512,0.0021173675,0.00025770042
785,0.9997683,0.00023019538,1.2507475e-06,3.4701446e-07,1.6142572e-08
786,0.9978752,0.0019829613,0.0001265417,1.5192019e-05,1.7459863e-07
787,0.9995735,0.00027125963,2.3669806e-07,0.0001550371,1.2055994e-10
788,0.9754921,0.024026517,0.00025058622,0.00022618659,4.5676697e-06
789,0.99658257,0.0032524818,1.647773e-05,0.0001483628,7.530756e-08
790,0.98860466,0.010546734,0.00070345565,0.0001207658,2.4342362e-05
791,0.99887234,0.00090755615,0.00019290028,2.6786749e-05,3.2442458e-07
792,0.9092203,0.087999046,0.002197442,0.0004631136,0.000120041106
793,0.98676443,0.012983211,0.00015379819,9.688448e-05,1.6409059e-06
794,0.99929214,0.00066295755,7.2402935e-07,4.421005e-05,1.0663815e-08
795,0.9975783,0.0021612176,0.00019248179,6.735663e-05,5.3828387e-07
796,0.9953951,0.004500053,1.2226106e-05,9.037782e-05,2.0954556e-06
797,0.98890007,0.0043180115,0.00463346,0.0011979763,0.00095040613
798,0.97689044,0.021511383,0.0011399193,0.0004333798,2.4868128e-05
799,0.998872,0.000676417,0.0003633529,8.754058e-05,6.38092e-07
800,0.9986778,0.0011150446,3.4855448e-06,0.00020371118,3.619905e-08
801,0.9963761,0.0019787243,0.0012841442,0.0003567666,4.308633e-06
802,0.99560225,0.004207652,1.3938865e-05,0.00017592579,2.6522824e-07
803,0.9973362,0.0019326031,1.0532657e-05,0.0007206677,5.6597845e-08
804,0.99863166,0.0006069039,0.00069788523,6.304101e-05,4.7223278e-07
805,0.9964749,0.0033640151,0.00013396227,2.2052725e-05,5.1040797e-06
806,0.96485925,0.03425456,0.0006108155,0.00021572088,5.9750728e-05
807,0.8705091,0.120160624,0.0053088027,0.0029568782,0.0010646218
808,0.99843055,0.0014588491,2.834952e-05,8.142838e-05,7.8140005e-07
809,0.99949443,0.0004760165,2.6393875e-05,3.0692868e-06,1.0502361e-07
810,0.9999765,2.2306745e-05,4.5621223e-10,1.1660399e-06,1.7823391e-14
811,0.97579247,0.016694421,0.006321477,0.0009371024,0.00025455054
812,0.99834,0.0010238698,9.944942e-05,0.00051928713,1.7350383e-05
813,0.97464174,0.024889052,0.00029081805,0.00017620076,2.0977102e-06
814,0.9950413,0.0045837658,0.00023171901,0.00014037603,2.7998346e-06
815,0.9977481,0.0021622968,9.630989e-06,7.94931e-05,5.2464674e-07
816,0.93464684,0.06508571,0.00018111015,7.618259e-05,1.0173354e-05
817,0.9997286,0.00024308967,2.0557542e-05,1.5391022e-06,6.236498e-06
818,0.9979195,0.0016647223,2.0888063e-05,0.00039244012,2.5054383e-06
819,0.9982685,0.0017305764,6.5646714e-07,3.0575558e-07,1.7848336e-08
820,0.9997559,0.0002268551,6.013117e-08,1.7235387e-05,7.914112e-11
821,0.9709259,0.027720753,0.0010076861,0.00030722385,3.8318456e-05
822,0.9985246,0.0014745459,5.8103774e-07,2.3465346e-07,1.4032726e-09
823,0.9823926,0.017516414,6.563295e-05,2.4811497e-05,6.0886947e-07
824,0.9944863,0.0054987296,3.8677235e-06,1.1243439e-05,4.7212993e-08
825,0.9909464,0.00687357,0.0012650028,0.00070403505,0.00021113368
826,0.95626104,0.00464537,0.00054796186,0.038522925,2.2657458e-05
827,0.98762774,0.011798895,0.0005095633,6.0392165e-05,3.4279644e-06
828,0.99993384,6.512963e-05,1.0382563e-06,7.390313e-08,2.3628203e-08
829,0.988808,0.010866158,0.00020805428,0.000113447626,4.3713917e-06
830,0.9988764,0.0007864394,0.00032021065,1.6649352e-05,2.7587237e-07
831,0.99924076,0.0005080267,0.0002028272,4.763699e-05,6.986269e-07
832,0.9943297,0.005556686,2.000338e-05,9.330036e-05,2.786636e-07
833,0.99914134,0.0008520384,1.2329677e-06,5.3062186e-06,5.8503716e-08
834,0.9913298,0.0036988761,0.0034863837,0.0012379037,0.00024699798
835,0.9384615,0.061311506,0.00014275545,7.774377e-05,6.526444e-06
836,0.9976538,0.0022005031,0.00012359483,2.1752792e-05,3.0686215e-07
837,0.9941083,0.0052804896,0.00035883603,0.00019898353,5.347199e-05
838,0.9869413,0.012643579,0.00029054933,0.00011824108,6.3318175e-06
839,0.99942267,0.000565573,8.231831e-06,3.5360665e-06,4.8970765e-08
840,0.9871236,0.012696656,7.914577e-05,9.615477e-05,4.313145e-06
841,0.9069114,0.072164364,0.0158765,0.0037212837,0.0013264199
842,0.9998098,0.00017988321,8.3517025e-06,2.0104255e-06,3.4466925e-09
843,0.99526125,0.0046420866,5.8730995e-05,3.6052363e-05,1.8695738e-06
844,0.9930621,0.006919526,5.9278505e-06,1.2322848e-05,8.598173e-08
845,0.9999348,6.476111e-05,4.6985343e-07,6.256001e-08,3.4051031e-10
846,0.9762739,0.022530928,0.00091003365,0.00024156258,4.3684155e-05
847,0.9831959,0.016657727,0.00012811764,1.7702698e-05,5.2952953e-07
848,0.98293865,0.016639786,9.171278e-05,0.00032894075,9.478915e-07
849,0.99896276,0.0010300339,5.8922014e-06,1.2906077e-06,4.0203614e-09
850,0.999482,0.0005072071,4.3474633e-06,6.336468e-06,1.7505094e-07
851,0.99307406,0.0062612207,0.0006164772,4.5230106e-05,2.9959108e-06
852,0.9943597,0.0056350776,3.5975809e-06,1.6406541e-06,2.1334467e-08
853,0.9053658,0.09263048,0.0015452981,0.0003769002,8.147316e-05
854,0.9083108,0.08852185,0.0017761986,0.0012735352,0.000117705786
855,0.9989459,0.0007639898,0.0002651201,2.4720266e-05,1.9890187e-07
856,0.9997129,0.00021016171,6.239728e-05,1.4577293e-05,3.3038987e-08
857,0.94742244,0.048244912,0.0026719107,0.0015657751,9.498613e-05
858,0.99763024,0.0019156846,0.0003179549,0.0001352159,7.809837e-07
859,0.9894986,0.009374783,0.0008002279,0.00024621747,8.018079e-05
860,0.9959823,0.00291559,0.000553139,0.0004838392,6.513969e-05
861,0.9786628,0.01988434,0.001155866,0.00029253267,4.459497e-06
862,0.99512887,0.004840906,7.240112e-06,2.2885646e-05,1.4073697e-07
863,0.98313415,0.011871296,0.0035839954,0.0007420105,0.0006684667
864,0.9990416,0.0009528135,2.314713e-07,5.370423e-06,2.7586875e-09
865,0.9915147,0.008299138,0.00013248963,4.8715632e-05,4.921587e-06
866,0.9183015,0.07869521,0.0017228114,0.0009048257,0.00037572806
867,0.9845383,0.015027835,0.00022628329,0.0002029613,4.668882e-06
868,0.9911103,0.008738458,9.378892e-05,5.6853747e-05,5.9258355e-07
869,0.9934576,0.0065264907,2.5772135e-06,1.3127572e-05,5.9500103e-08
870,0.99708825,0.002709883,7.243995e-05,9.9205725e-05,3.0143741e-05
871,0.99560684,0.004385308,4.125585e-06,3.6955555e-06,1.377e-08
872,0.9998915,9.5021474e-05,1.0885059e-05,2.6004777e-06,4.6015156e-09
873,0.99492174,0.0050312486,2.94476e-05,1.7279222e-05,1.8625794e-07
874,0.95798236,0.039121866,0.0009576233,0.0018904472,4.77586e-05
875,0.9842779,0.0027685256,0.009872824,0.0029755486,0.00010509967
876,0.9809064,0.018923886,0.000100715435,6.834833e-05,5.444617e-07
877,0.9944042,0.0054440806,0.00010259904,4.8071655e-05,1.1195846e-06
878,0.99389815,0.0055153985,0.00018957708,0.00039405725,2.7307146e-06
879,0.98495007,0.014179257,0.000752828,0.00011062974,7.219051e-06
880,0.9989951,0.00056995876,0.000370217,6.425341e-05,4.2261195e-07
881,0.9853768,0.014142404,0.00026175167,0.00021701133,2.0490938e-06
882,0.97859496,0.021090683,0.00022765469,8.2173574e-05,4.531579e-06
883,0.9898845,0.009877579,0.000106530795,0.00013012816,1.1844314e-06
884,0.9972934,0.002597398,1.2057385e-05,9.689134e-05,2.4884204e-07
885,0.99982774,0.00010075589,6.771853e-05,3.8472804e-06,2.4877625e-08
886,0.9818139,0.017557591,3.1267497e-05,0.00059553393,1.7498966e-06
887,0.9868809,0.01296322,0.00012633055,2.8932893e-05,6.4313286e-07
888,0.9047706,0.0027062562,0.00037739924,0.09213462,1.113726e-05
889,0.9916946,0.008294555,9.638438e-06,1.23483e-06,5.0663186e-08
890,0.9985642,0.0013780931,5.2872543e-05,4.870729e-06,3.6304108e-08
891,0.9450393,0.05378218,0.00070855673,0.00039155583,7.836839e-05
892,0.9450176,0.05309536,0.0012545629,0.00057534716,5.7060668e-05
893,0.96501434,0.034821782,7.179184e-05,8.45043e-05,7.539598e-06
894,0.9894707,0.010468948,5.4082953e-05,6.147768e-06,9.561387e-08
895,0.9964964,0.0033326438,7.909413e-06,0.00016279172,2.0203386e-07
896,0.96128035,0.035543416,0.00095750886,0.0021801698,3.8624185e-05
897,0.9804227,0.01491265,0.0041543054,0.00045292187,5.7554553e-05
898,0.9847189,0.0060532927,0.007777835,0.0013911709,5.865166e-05
899,0.99894816,0.0010491684,1.5299777e-06,1.0702184e-06,1.5719861e-07
900,0.99052715,0.009403072,2.4516983e-05,4.5080218e-05,2.5491508e-07
901,0.996732,0.0008849089,0.0019988837,0.00037751897,6.8178074e-06
902,0.98868537,0.011147576,8.865384e-05,7.250531e-05,5.900565e-06
903,0.9839146,0.014220377,0.0003495696,0.0015088357,6.7279725e-06
904,0.84995395,0.1429757,0.0054550664,0.0014912043,0.00012403252
905,0.99195486,0.0033529773,0.0039760177,0.0007070923,9.083457e-06
906,0.9841412,0.015141244,0.0002976245,0.000414138,5.7343896e-06
907,0.9967468,0.0032194562,3.120213e-06,3.067993e-05,4.2925354e-08
908,0.97228235,0.020733215,0.0061499933,0.0007976406,3.685299e-05
909,0.9975477,0.0022271778,0.00014064243,7.6433585e-05,8.0975815e-06
910,0.9370046,0.028727755,0.015824027,0.011762785,0.006680759
911,0.9896373,0.009764253,0.00045220248,0.0001401264,6.1183337e-06
912,0.9977633,0.002178434,2.3861488e-05,3.401822e-05,3.5426658e-07
913,0.997382,0.0023808682,1.3588792e-05,0.0002232597,2.1914354e-07
914,0.99256986,0.0025322407,0.0043709134,0.00051451824,1.2460274e-05
915,0.98568094,0.014287927,1.4435421e-05,1.6441352e-05,2.008233e-07
916,0.99656016,0.0033909418,2.2370217e-05,2.6518715e-05,3.5518955e-08
917,0.9553713,0.042871274,0.000969265,0.0007318385,5.6383353e-05
918,0.99949074,0.00049388496,1.350704e-07,1.52252815e-05,3.4172776e-10
919,0.9675202,0.0027857204,0.0008120554,0.02886571,1.6257634e-05
920,0.9934604,0.006441246,6.7146306e-05,2.9398716e-05,1.7860502e-06
921,0.99217707,0.0065586525,0.00091672014,0.00031788897,2.9661254e-05
922,0.99681383,0.0031262005,4.9471193e-05,1.0342357e-05,2.3665382e-07
923,0.9841563,0.009299002,0.005028007,0.0012791647,0.00023758199
924,0.91982174,0.070980325,0.0047034724,0.004280076,0.00021441183
925,0.9986442,0.00114762,7.7801924e-05,8.356469e-05,4.686308e-05
926,0.99946123,0.00044909574,8.161238e-05,8.09022e-06,3.8806085e-08
927,0.9983993,0.0015635288,1.1175746e-05,2.5578925e-05,3.681571e-07
928,0.9946715,0.0053164056,8.163919e-06,3.8974235e-06,1.8171173e-08
929,0.9992254,0.0004668757,0.0002773157,3.0408459e-05,1.19156994e-07
930,0.9819756,0.010159575,0.0065622767,0.0012732593,2.9268364e-05
931,0.9993048,0.0006741014,4.750181e-07,2.0631416e-05,1.9333799e-08
932,0.9947161,0.0052795676,1.9215954e-06,2.4690394e-06,1.8228084e-08
933,0.91975945,0.075576074,0.0024250222,0.0021488387,9.0582966e-05
934,0.9999515,4.7130052e-05,1.1245091e-06,2.754081e-07,3.1194747e-10
935,0.9993303,0.00064677314,3.816258e-07,2.2614377e-05,8.627144e-09
936,0.9844269,0.014883261,0.00050489005,0.000182271,2.558276e-06
937,0.9976041,0.0017939437,0.00028378252,0.00030797365,1.0268021e-05
938,0.9971342,0.0028357366,1.8704673e-05,1.1032622e-05,3.1536226e-07
939,0.9995497,0.00044692156,2.3118266e-06,9.748169e-07,1.1345146e-08
940,0.99914813,0.00084786204,2.587356e-07,3.7774685e-06,3.7369627e-09
941,0.99910176,0.00036594755,0.0004944183,3.748021e-05,4.0438866e-07
942,0.99952936,0.00045507602,1.26665955e-05,2.952973e-06,4.148428e-08
943,0.99917907,0.0008108565,3.4038546e-06,6.535048e-06,1.0705899e-07
944,0.9877487,0.011007931,0.0005348298,0.000703107,5.445185e-06
945,0.99844235,0.0014923475,1.452053e-06,6.386137e-05,9.599616e-09
946,0.99727625,0.0027131883,1.3999428e-06,9.157932e-06,1.1813189e-08
947,0.93385893,0.04930742,0.013223442,0.0031510012,0.0004591928
948,0.9696107,0.015198863,0.010200191,0.0023593127,0.0026309846
949,0.9962483,0.0036089013,0.000121581084,1.7994766e-05,3.263573e-06
950,0.99040705,0.009134696,0.00032554564,0.00013045971,2.241577e-06
951,0.99914265,0.0008405007,2.759372e-07,1.6517602e-05,1.5149323e-09
952,0.9936527,0.0010739141,0.00026793874,0.004996504,8.943231e-06
953,0.9831223,0.016202053,0.00051934796,0.00012910936,2.7150918e-05
954,0.9993325,0.0006626534,3.6398667e-06,1.2392646e-06,7.3224635e-09
955,0.9622457,0.034508508,0.0021382584,0.0010356565,7.193881e-05
956,0.9972269,0.0020779772,0.00030749192,0.00036010542,2.7459459e-05
957,0.9518693,0.046922803,0.0006360769,0.0005450878,2.6733982e-05
958,0.98648703,0.013454854,4.067885e-05,1.7180068e-05,2.1396194e-07
959,0.98882794,0.010282629,0.00030199607,0.0005793037,8.099457e-06
960,0.9999443,5.5153112e-05,3.662679e-07,1.1660161e-07,2.0417015e-10
961,0.992093,0.007878862,1.2720193e-05,1.4965269e-05,5.039217e-07
962,0.9874608,0.011733468,0.0006916981,8.962091e-05,2.4506227e-05
963,0.9833794,0.016565528,3.9712795e-05,1.4691002e-05,7.553987e-07
964,0.9958407,0.003998772,3.3389457e-05,0.0001251599,1.8485053e-06
965,0.9869963,0.0121691935,0.0005236436,0.00030573164,5.017076e-06
966,0.9897508,0.010218322,2.511828e-05,5.6240333e-06,1.6203728e-07
967,0.9790462,0.019454388,0.00096124934,0.00052863493,9.478961e-06
968,0.99359715,0.006289298,1.357627e-05,9.952747e-05,4.470338e-07
969,0.9508827,0.04904773,5.82592e-05,1.0474417e-05,8.885017e-07
970,0.9965474,0.0026751072,6.1813094e-05,0.00071560236,1.4614604e-07
971,0.85143477,0.108538,0.026232965,0.010795175,0.0029990645
972,0.9711692,0.028435024,0.0002892962,9.141849e-05,1.5117656e-05
973,0.9986369,0.0009181222,0.00041142828,3.2932898e-05,5.5122877e-07
974,0.9978824,0.0018415028,0.00023244224,4.2596654e-05,1.0773115e-06
975,0.98480403,0.004696642,0.008224399,0.001907748,0.00036718434
976,0.9314507,0.06743581,0.00076125696,0.0002866723,6.5520115e-05
977,0.92868346,0.061241996,0.007803454,0.0018876797,0.00038353572
978,0.9783252,0.021517571,0.000104075145,4.8971353e-05,4.2281154e-06
979,0.99552625,0.0033450567,2.1204423e-05,0.00110725,2.6823645e-07
980,0.9971437,0.002853443,2.4182098e-06,4.8765935e-07,8.419208e-09
981,0.99862206,0.001110763,1.7775166e-06,0.0002653255,1.083909e-08
982,0.9942609,0.0057272343,4.5195607e-06,7.2415482e-06,6.6675696e-08
983,0.9924775,0.0028911633,0.003327215,0.0011399309,0.00016419678
984,0.9927007,0.006152698,0.0009480074,0.00014972259,4.8927646e-05
985,0.97859555,0.020516707,0.00037585213,0.000506584,5.329842e-06
986,0.9989772,0.0009312893,8.455929e-05,6.2983154e-06,6.903858e-07
987,0.9956929,0.003943538,0.0003273009,3.5382527e-05,7.7698746e-07
988,0.9796041,0.02032989,4.5289496e-05,2.0440342e-05,2.7699596e-07
989,0.9998524,0.00014240532,1.1922057e-08,5.0605504e-06,1.9351961e-12
990,0.9620107,0.0022021597,0.025184494,0.0024256099,0.008176996
991,0.20379607,0.79570407,0.0004053319,5.4431777e-05,4.0147726e-05
992,0.9987692,0.0011694955,5.182851e-05,9.230556e-06,1.3978844e-07
993,0.9997415,0.00025638693,1.9519941e-06,2.3464321e-07,1.8589618e-09
994,0.85395783,0.008254699,0.112960964,0.01905789,0.005768557
995,0.99889755,0.0010602683,1.5365181e-06,4.061378e-05,2.7778523e-08
996,0.9991043,0.0006337715,0.00025019172,1.1079835e-05,5.9537433e-07
997,0.99878114,0.0011916948,4.4619753e-07,2.6734207e-05,2.0225004e-09
998,0.9953603,0.004464964,0.00011815415,5.5483462e-05,1.1846589e-06
999,0.99470866,0.0047849417,0.00030887878,0.0001635014,3.3952296e-05
1000,0.9947653,0.0052043837,2.6294229e-05,4.039552e-06,4.8596913e-08
1001,0.9995382,0.00045095073,8.324079e-06,2.3702185e-06,8.035271e-08
1002,0.9999305,6.44661e-05,6.729829e-09,5.002966e-06,1.6841933e-12
1003,0.99666446,0.0031764132,0.000112043126,4.6144723e-05,9.161453e-07
1004,0.9794393,0.019287828,0.00057201926,0.000655361,4.540685e-05
1005,0.98282707,0.016621912,0.00038134534,0.00016158352,8.033369e-06
1006,0.9918755,0.0027896778,0.00038624406,0.0048901853,5.8400783e-05
1007,0.99699247,0.003004054,5.714286e-07,2.9035182e-06,9.481465e-09
1008,0.9918356,0.008116102,3.3666973e-05,1.4364696e-05,4.07248e-07
1009,0.9866361,0.012565023,0.0005188094,0.00027489246,5.1525576e-06
1010,0.9966552,0.0028137753,0.00037203231,0.00012902769,2.9984432e-05
1011,0.9994814,0.0005082246,5.1466523e-06,4.851377e-06,3.9673327e-07
1012,0.99673754,0.0032003978,4.9855216e-06,5.6990037e-05,5.0431733e-08
1013,0.99280953,0.0070078396,0.00016083305,2.1180043e-05,6.274823e-07
1014,0.22206709,0.0103211,0.7111603,0.039681196,0.016770335
1015,0.9854451,0.0009188515,0.00013227468,0.013502643,1.1548012e-06
1016,0.9893896,0.003129789,0.006697479,0.00074058573,4.2540247e-05
1017,0.9880265,0.011913697,4.1405565e-05,1.7236785e-05,1.1761301e-06
1018,0.99452126,0.0054633473,1.2999329e-05,2.267111e-06,1.2994035e-07
1019,0.9881456,0.011837629,1.1438352e-05,5.3342933e-06,3.0695816e-08
1020,0.992125,0.007850109,5.6519834e-06,1.9176257e-05,6.287212e-08
1021,0.99933475,0.0005530349,0.00010230351,9.789722e-06,1.10945294e-07
1022,0.98783034,0.012087957,4.38531e-05,2.0042135e-05,1.7796423e-05
1023,0.9907246,0.0031036858,0.005438425,0.0004781334,0.0002551894
1024,0.9997235,0.00027367653,2.4530987e-06,4.2088496e-07,6.914002e-10
1025,0.9994294,0.00045346408,0.0001080242,8.925877e-06,6.168686e-08
1026,0.98584586,0.014090111,4.9257535e-05,1.375136e-05,1.0805373e-06
1027,0.9916814,0.001294484,0.00610801,0.0008733801,4.2761647e-05
1028,0.96026665,0.038720693,0.00084715505,0.00015748032,8.024914e-06
1029,0.9998963,7.9003155e-05,1.1952812e-05,1.2768678e-05,5.11268e-09
1030,0.9921508,0.0078084334,9.130149e-06,3.1601092e-05,9.228341e-08
1031,0.9885111,0.006973541,0.0025978643,0.0014591652,0.0004584191
1032,0.872291,0.1035835,0.01355377,0.00886752,0.001704185
1033,0.9984744,0.001465883,2.8052755e-06,5.674407e-05,1.3276423e-07
1034,0.97576594,0.023728332,0.00033108017,0.00016024358,1.4371246e-05
1035,0.9734586,0.026433729,6.0176764e-05,4.554939e-05,1.9261834e-06
1036,0.99646497,0.003417892,4.1458534e-05,7.482133e-05,8.25207e-07
1037,0.99713576,0.0028339634,4.4507033e-06,2.5719333e-05,1.00818596e-07
1038,0.9996712,0.0003286867,7.224737e-09,8.033031e-08,7.462542e-12
1039,0.999629,0.00036948285,1.2592558e-08,1.4567613e-06,2.1979942e-11
1040,0.99866843,0.0012376284,2.8807915e-06,9.084986e-05,2.046557e-07
1041,0.96581393,0.03405329,7.4168485e-05,5.6537145e-05,2.121665e-06
1042,0.99768,0.0016904967,0.0005416752,8.713095e-05,7.3947643e-07
1043,0.99835145,0.0012645758,0.00030531344,7.832929e-05,2.646104e-07
1044,0.99756384,0.0024296413,1.235977e-06,5.2575706e-06,1.9633838e-08
1045,0.9991339,0.0008559715,3.862375e-06,6.119794e-06,9.517343e-08
1046,0.99935573,0.00061213627,2.394125e-05,8.039353e-06,2.2017441e-07
1047,0.99315226,0.0067870477,5.416767e-05,6.193541e-06,3.2768426e-07
1048,0.9920894,0.0076627126,0.00020309229,4.271393e-05,2.1462665e-06
1049,0.9996362,0.00036350556,5.969591e-08,3.2622887e-07,2.303821e-10
1050,0.99598217,0.0039017769,2.4960962e-05,9.059685e-05,4.8808494e-07
1051,0.9992618,0.00073284365,1.7358651e-07,5.1317024e-06,2.9808251e-09
1052,0.9841186,0.0152474865,0.0005524631,7.9671256e-05,1.8577107e-06
1053,0.97348356,0.026158197,0.00020874653,0.00014638141,3.1694672e-06
1054,0.9728707,0.026575387,0.000354135,0.00018618174,1.3571926e-05
1055,0.9749995,0.016462833,0.0032520506,0.0052526067,3.3026783e-05
1056,0.97573346,0.012532393,0.008413398,0.002125653,0.0011950837
1057,0.98978686,0.008184082,0.0012843041,0.0007356929,9.09312e-06
1058,0.98519105,0.014484532,0.00026283233,5.7683766e-05,3.936819e-06
1059,0.99910456,0.00082511693,5.0456933e-05,1.9718653e-05,1.4273623e-07
1060,0.99406946,0.004808491,0.00095186505,0.00016093843,9.2192795e-06
1061,0.9665678,0.033258628,0.00012370136,4.6878456e-05,2.9757077e-06
1062,0.9980714,0.0016648686,0.00021491766,4.867459e-05,2.6543532e-07
1063,0.8854112,0.11340333,0.0009514927,0.00017468855,5.916131e-05
1064,0.97326005,0.026584495,6.597248e-05,8.558914e-05,3.9941606e-06
1065,0.9977888,0.0021893764,2.298419e-06,1.9481808e-05,3.436291e-08
1066,0.9925438,0.0070476863,0.00017938207,0.00022762621,1.5693983e-06
1067,0.991783,0.004041204,0.0026637835,0.0012189201,0.0002931267
1068,0.999718,0.0002689223,1.1592965e-07,1.2857613e-05,9.058878e-11
1069,0.98539966,0.014426741,0.00010015131,7.20068e-05,1.3582182e-06
1070,0.99965405,0.0002700698,6.902234e-05,6.8634704e-06,3.1859468e-08
1071,0.99495584,0.005030527,1.9838053e-06,1.15405055e-05,7.670599e-08
1072,0.9952905,0.0044227582,3.5144636e-05,0.00025057845,1.0196579e-06
1073,0.99987257,0.00012742692,1.354156e-09,1.3623833e-10,1.4481851e-13
1074,0.9878769,0.01123022,0.00049951655,0.00038482106,8.653104e-06
1075,0.99953294,0.00043124094,3.3999866e-05,1.8838344e-06,1.3371348e-08
1076,0.99168324,0.0082253385,6.4336615e-05,2.66858e-05,3.0860622e-07
1077,0.99998784,1.17617565e-05,5.869019e-10,3.968071e-07,4.7800224e-14
1078,0.9595702,0.037714906,0.00125361,0.0013958067,6.549156e-05
1079,0.99746335,0.0025015874,2.8287559e-05,5.944239e-06,8.01566e-07
1080,0.98988056,0.008158558,0.0015089938,0.00042119817,3.0729876e-05
1081,0.9988003,0.00074977055,0.00042118967,2.7126069e-05,1.7088946e-06
1082,0.9848572,0.01460611,0.00021343812,0.00031775754,5.433151e-06
1083,0.9998305,0.00016759409,1.6345514e-06,2.7527315e-07,4.0706407e-09
1084,0.9989261,0.0010589915,6.828861e-06,7.869055e-06,2.3387679e-07
1085,0.66497886,0.11268801,0.12173428,0.06847781,0.032121014
1086,0.9987791,0.0011873492,2.9345123e-05,3.845335e-06,3.798468e-07
1087,0.9983004,0.0014694242,0.00014453728,8.174242e-05,4.0932955e-06
1088,0.9869179,0.012606281,3.0506997e-05,0.00044287526,2.367716e-06
1089,0.9828226,0.011382743,0.003937382,0.0012181343,0.0006391851
1090,0.99303174,0.0069474755,4.530573e-06,1.603502e-05,6.8461496e-08
1091,0.993701,0.0004172721,0.0055486886,0.00033198533,1.1221748e-06
1092,0.9980994,0.0015174029,3.7774156e-05,0.0003434209,2.0481464e-06
1093,0.9937743,0.0058688596,0.0002795606,7.405782e-05,3.152373e-06
1094,0.984298,0.004145852,0.0007349426,0.010570973,0.00025021133
1095,0.99370545,0.0061739036,8.370679e-05,3.5852936e-05,1.095006e-06
1096,0.99860495,0.0012643602,0.000115986986,1.4567109e-05,1.4130725e-07
1097,0.99433494,0.005349977,0.00020199316,0.00011145031,1.6924482e-06
1098,0.9998134,0.00017279094,9.779542e-06,4.074449e-06,4.8606907e-08
1099,0.8979176,0.049526103,0.034512118,0.01598494,0.0020592257
1100,0.99894387,0.00035984977,0.00064630696,4.9736784e-05,2.497564e-07
1101,0.9994523,0.00054164894,1.4437427e-07,5.8745095e-06,8.668794e-09
1102,0.99819785,0.001775062,1.597453e-05,1.0583974e-05,5.559437e-07
1103,0.95484465,0.04252671,0.001344007,0.0012622358,2.238076e-05
1104,0.99962175,0.0002515235,0.000119017466,7.684803e-06,2.4689157e-08
1105,0.99547714,0.004382044,2.882983e-05,0.00010415401,7.836733e-06
1106,0.98817295,0.011807086,9.77612e-06,1.0134852e-05,1.3174768e-07
1107,0.9675444,0.031965036,0.00034896345,0.00013503704,6.6032876e-06
1108,0.9876559,0.010903963,0.0010495663,0.00037785072,1.268922e-05
1109,0.9998393,0.00016066863,2.0327615e-09,1.9288942e-09,2.0546191e-11
1110,0.9888136,0.010669622,0.00040216875,0.00010149507,1.3083164e-05
1111,0.968329,0.027235316,0.001124534,0.0032383276,7.289066e-05
1112,0.97330576,0.026512988,0.0001326654,4.6439814e-05,2.033713e-06
1113,0.9999075,7.300328e-05,1.9033601e-05,5.520191e-07,2.6868403e-08
1114,0.99898976,0.00088303746,0.00010894358,1.3337937e-05,4.895105e-06
1115,0.9477532,0.048749223,0.0015472397,0.0017526872,0.00019765156
1116,0.9327411,0.06572336,0.0008117164,0.00027314387,0.000450713
1117,0.990612,0.0072822757,0.0011998848,0.0008703586,3.5514353e-05
1118,0.99983954,0.00016044879,4.7654716e-09,2.6733609e-09,2.242562e-11
1119,0.9987224,0.0011114946,0.00014555026,2.0420646e-05,8.251592e-08
1120,0.99956506,0.000186085,8.74284e-05,1.2451471e-05,0.00014889229
1121,0.89675957,0.052134357,0.025341213,0.024296455,0.0014685612
1122,0.99979025,0.00016439513,4.16199e-05,3.82002e-06,2.998848e-08
1123,0.99675435,0.0008149555,0.0017949414,0.0006333073,2.386066e-06
1124,0.99941885,0.0005657014,4.0084078e-07,1.5035774e-05,5.148159e-09
1125,0.9837177,0.016234994,2.0039311e-05,2.705329e-05,2.433309e-07
1126,0.9978065,0.0021215673,5.5898247e-05,1.1921007e-05,4.144988e-06
1127,0.98955184,0.00951761,0.00044347465,0.00038468302,0.00010255901
1128,0.9985483,0.0012550098,5.5074855e-05,0.00013891447,2.6231153e-06
1129,0.99972886,0.00026980066,6.692599e-08,1.3018555e-06,1.172104e-10
1130,0.99859744,0.0013423986,4.4901368e-05,1.4619872e-05,6.197067e-07
1131,0.96566707,0.003888277,0.0016019614,0.028626494,0.0002162085
1132,0.90546566,0.09379319,0.0005116879,0.00017061492,5.884127e-05
1133,0.99984694,0.00014443316,7.3071246e-06,1.2821464e-06,1.565022e-08
1134,0.99451965,0.005359666,9.388179e-05,2.6217233e-05,5.4091043e-07
1135,0.9939236,0.005913959,7.3869305e-05,8.605597e-05,2.4296442e-06
1136,0.9973859,0.0020226352,3.5951816e-06,0.00058779493,1.6626716e-08
1137,0.9669029,0.032901324,8.916161e-05,0.00010239816,4.1412327e-06
1138,0.9999205,6.362491e-05,1.5576261e-05,2.7881174e-07,1.5696395e-08
1139,0.9862012,0.013422853,0.00024149453,0.000116956115,1.7368862e-05
1140,0.99964094,0.00035300746,5.5824976e-06,5.056545e-07,1.6546835e-08
1141,0.9916653,0.008258035,5.274797e-05,2.3106446e-05,7.327878e-07
1142,0.9986791,0.0012083688,7.108313e-05,4.1091884e-05,3.3608333e-07
1143,0.79002625,0.002606495,0.0046792375,0.0003558074,0.2023322
1144,0.9999895,1.0200912e-05,1.5506062e-10,2.1381773e-07,8.032602e-15
1145,0.9640968,0.030995332,0.0035344448,0.0013361396,3.735776e-05
1146,0.9959396,0.003907063,0.00013871536,1.4337158e-05,3.1190228e-07
1147,0.90491956,0.09092149,0.0024461783,0.0016340073,7.8778976e-05
1148,0.9629615,0.0024482652,0.0002732863,0.034315683,1.3875612e-06
1149,0.99006605,0.009741194,0.00014437309,4.6115943e-05,2.271366e-06
1150,0.99139977,0.0068389648,0.00085869414,0.0008536221,4.889172e-05
1151,0.9252843,0.07386885,0.0005635293,0.00023718199,4.6254965e-05
1152,0.9936185,0.006374364,3.992411e-06,3.2886253e-06,1.0841249e-08
1153,0.98872185,0.011232175,8.058878e-06,3.78415e-05,1.6411741e-07
1154,0.9218835,0.07346613,0.0026484604,0.001839036,0.00016286873
1155,0.96991944,0.024502253,0.00033488247,0.0052322973,1.1265492e-05
1156,0.9824624,0.012729428,0.0034725529,0.001030483,0.00030518955
1157,0.99023145,0.005981384,0.001688821,0.0018693696,0.00022896787
1158,0.99322295,0.004340907,0.0009762096,0.00096677203,0.0004931668
1159,0.99597734,0.003905423,0.000100674915,1.5179142e-05,1.440257e-06
1160,0.96911365,0.030809248,5.1968425e-05,2.4522127e-05,6.3229857e-07
1161,0.9972179,0.0026127817,0.00012618692,4.227998e-05,8.290287e-07
1162,0.47143278,0.000596648,0.00072007714,0.5272498,6.910548e-07
1163,0.9974721,0.0024542992,5.344131e-05,2.0101399e-05,8.1071356e-08
1164,0.9694169,0.028861634,0.0012425137,0.0004259495,5.2890773e-05
1165,0.99951553,0.0004727973,2.7031305e-07,1.13913065e-05,1.4456071e-09
1166,0.99225897,0.0051037865,0.0008106118,0.0017929137,3.3750828e-05
1167,0.96344626,0.036071084,0.00026725512,0.00019967332,1.5840724e-05
1168,0.985647,0.014208464,0.000101203535,4.1880357e-05,1.352197e-06
1169,0.99882096,0.0011373393,1.7143537e-05,1.2688607e-05,1.1808711e-05
1170,0.94209534,0.056337006,0.00084909296,0.00066037814,5.8203597e-05
1171,0.99063945,0.00929097,2.2477392e-05,4.7017078e-05,1.3136466e-07
1172,0.98147696,0.018073052,0.00027954608,0.00016663795,3.6988727e-06
1173,0.98153335,0.0153449215,0.001637854,0.0014178893,6.5961285e-05
1174,0.9995498,0.0002352833,0.00019998345,1.4781737e-05,1.6617223e-07
1175,0.99050444,0.009488279,3.3028116e-06,4.0674354e-06,4.1183643e-08
1176,0.98341906,0.016527101,3.5374364e-05,1.7966218e-05,4.5798475e-07
1177,0.9609558,0.035313163,0.002296702,0.0014044064,2.9850837e-05
1178,0.999244,0.00073126704,2.028059e-05,4.081172e-06,4.1226474e-07
1179,0.9998387,0.00014510198,5.5222564e-08,1.61896e-05,2.5383633e-11
1180,0.9999465,4.480566e-05,5.7187826e-06,2.9848209e-06,1.1193692e-09
1181,0.995906,0.0037505787,0.00023915569,0.00010130894,2.9569633e-06
1182,0.9982558,0.0017363164,3.8977128e-06,3.945674e-06,3.7961136e-08
1183,0.9960854,0.0035327477,3.2560656e-05,0.00034882667,4.817153e-07
1184,0.9969131,0.0023757701,0.0002576633,0.00044382561,9.682718e-06
1185,0.9865941,0.013036972,9.659064e-05,0.00027169412,6.4691363e-07
1186,0.9975865,0.0021900863,0.0001140087,0.00010606003,3.278589e-06
1187,0.9980282,0.0019185363,1.7860948e-06,5.123542e-05,6.106635e-08
1188,0.99632394,0.0035811448,8.12706e-05,1.1409021e-05,2.2774084e-06
1189,0.9998412,0.00015865208,5.2618045e-08,5.186308e-08,8.014904e-10
1190,0.9980287,0.0019643009,2.8972731e-06,4.176555e-06,2.4349484e-08
1191,0.98900664,0.010896397,5.4896198e-05,3.4698594e-05,7.2877174e-06
1192,0.75344306,0.004965111,0.0073963962,0.0005693567,0.23362613
1193,0.99357116,0.004916461,0.0008729066,0.00063366524,5.806599e-06
1194,0.9891283,0.009839602,0.00053382845,0.00048519846,1.30405315e-05
1195,0.9946095,0.005296144,7.7340235e-05,1.1928592e-05,5.053379e-06
1196,0.99988985,9.757581e-05,1.0900645e-05,1.094178e-06,4.97452e-07
1197,0.9979249,0.0020454084,1.4078036e-05,1.2695541e-05,2.8566346e-06
1198,0.99008405,0.009758567,0.0001350681,2.1010357e-05,1.2599028e-06
1199,0.99962246,0.00037177047,3.892841e-06,1.8641736e-06,3.1536466e-08
1200,0.99824417,0.0015499978,2.8506374e-06,0.00020297962,2.8112934e-08
1201,0.99668044,0.0030220456,0.00021047409,8.646436e-05,6.052122e-07
1202,0.9786148,0.02097081,0.00021832295,0.00019284453,3.2210792e-06
1203,0.99960047,0.00039514134,3.0422407e-06,1.2516482e-06,1.6561297e-07
1204,0.9813524,0.018605169,1.6406924e-05,2.54757e-05,5.667813e-07
1205,0.9853238,0.014461796,0.00012597819,8.54001e-05,3.0232009e-06
1206,0.9983487,0.0016502549,7.4844905e-07,3.535686e-07,3.003509e-09
1207,0.95688075,0.04167728,0.00067034573,0.0007597823,1.1853318e-05
1208,0.9875043,0.005036567,0.0035715355,0.0032775614,0.00061013055
1209,0.9656704,0.03430866,1.0737644e-05,8.871901e-06,1.4297727e-06
1210,0.9640186,0.014226523,0.013710648,0.004632492,0.0034117892
1211,0.98967034,0.010269898,2.779446e-05,3.102249e-05,9.2650055e-07
1212,0.9803966,0.016603846,0.0022507,0.00071435096,3.442287e-05
1213,0.988441,0.004332608,0.00030757222,0.0069051697,1.36620865e-05
1214,0.991437,0.005759112,0.0008937964,0.0016423989,0.00026763845
1215,0.9800749,0.01958494,0.00021183811,0.00012613343,2.2479064e-06
1216,0.98525476,0.014577029,0.00015130342,1.65127e-05,3.3705058e-07
1217,0.9661876,0.03145766,0.0011792403,0.0011231881,5.2263113e-05
1218,0.98498595,0.009613784,0.0028391625,0.0019202692,0.0006407203
1219,0.91847634,0.081034034,0.00038716008,8.102742e-05,2.1506483e-05
1220,0.99989176,0.00010530306,2.4273336e-06,5.986515e-07,5.153169e-09
1221,0.9993869,0.00060630066,4.4348085e-06,2.2635909e-06,7.415406e-08
1222,0.9959518,0.0039909463,4.8175636e-05,8.881442e-06,1.0681908e-07
1223,0.9977755,0.0010714347,0.00090733456,0.000245109,6.38935e-07
1224,0.9977684,0.0017759607,8.235714e-07,0.0004548144,2.3587965e-08
1225,0.9204659,0.07338786,0.0042766095,0.0016939576,0.00017571075
1226,0.99731904,0.0026737123,4.460105e-06,2.7968313e-06,1.6483892e-08
1227,0.9987463,0.00096812093,0.00023993614,4.5551704e-05,1.6260682e-07
1228,0.99570173,0.0041837394,3.4360943e-05,7.9831574e-05,3.392136e-07
1229,0.99763346,0.0018736209,0.00038474592,4.556508e-05,6.267476e-05
1230,0.9958638,0.0036345166,5.9934875e-05,0.00044125045,4.6878114e-07
1231,0.9991811,0.00081304216,2.2092388e-06,3.6866593e-06,3.680167e-08
1232,0.8880126,0.11139499,0.00045481996,0.00013257163,5.0362037e-06
1233,0.99135685,0.0011288115,0.0007168819,0.00031295928,0.0064845104
1234,0.98710024,0.011902898,0.0008415899,0.00014617194,9.0248e-06
1235,0.9943269,0.0056282803,3.650376e-05,8.154586e-06,7.382253e-08
1236,0.9892693,0.00693949,0.0030275765,0.0007557509,7.957948e-06
1237,0.99632335,0.003668393,1.3530804e-06,6.9819166e-06,3.584819e-08
1238,0.99095625,0.008911719,9.754792e-05,3.239602e-05,2.1520439e-06
1239,0.99929535,0.0007042409,2.2679589e-07,1.240902e-07,1.7648027e-09
1240,0.9359025,0.06362706,0.00030315891,0.00015889306,8.455959e-06
1241,0.999597,0.00032819464,7.094418e-05,3.363353e-06,4.704308e-07
1242,0.90919024,0.09079923,6.2896574e-06,4.0789487e-06,7.905574e-08
1243,0.99894184,0.0008231286,0.00019539852,3.9494615e-05,1.4873011e-07
1244,0.9947227,0.003301094,0.0016943732,0.00027136883,1.0597793e-05
1245,0.961106,0.027832618,0.0057131606,0.0030734672,0.002274853
1246,0.99919444,0.0007586326,9.600537e-07,4.596559e-05,4.5220144e-08
1247,0.9953223,0.004428547,0.00016200384,8.3738705e-05,3.3980866e-06
1248,0.95756024,0.041782748,0.0003943712,0.00023624719,2.6530857e-05
1249,0.90569806,0.047916047,0.030707058,0.014498624,0.0011802207
1250,0.999527,0.00047295715,8.9892836e-08,5.9136273e-08,5.582163e-10
1251,0.99801093,0.0013805048,1.9934172e-05,0.00058818544,4.741986e-07
1252,0.8756071,0.1211785,0.0006853263,0.0020670511,0.00046206813
1253,0.996376,0.0036139933,1.8312755e-06,8.09547e-06,2.2395676e-08
1254,0.9965199,0.0033704774,7.8641155e-05,3.0269346e-05,6.9197415e-07
1255,0.998577,0.001367241,2.170248e-05,2.3745391e-05,1.0263372e-05
1256,0.999175,0.0006193622,0.00013826418,6.659712e-05,7.606463e-07
1257,0.99318177,0.004399142,0.0008656817,0.00059611275,0.0009572112
1258,0.9976253,0.0020402633,0.0002803497,5.32579e-05,8.583556e-07
1259,0.76905924,0.22926696,0.0011244,0.0005092974,4.0095158e-05
1260,0.9993148,0.00056920096,0.00010126643,1.4436473e-05,3.9878856e-07
1261,0.98572046,0.013951619,0.00029303686,3.387196e-05,9.996306e-07
1262,0.9971162,0.0028721709,4.59745e-06,6.8413406e-06,2.241395e-07
1263,0.9788648,0.011527445,0.00065421365,0.0089304345,2.3111066e-05
1264,0.9450018,0.054345194,0.00032158257,0.0002904194,4.1008836e-05
1265,0.98966825,0.009865961,0.00023685723,0.0002252993,3.6131432e-06
1266,0.98707485,0.007720577,0.003961783,0.001230366,1.2417304e-05
1267,0.9866584,0.013049595,8.807775e-05,0.0002017822,2.245569e-06
1268,0.99913883,0.00083587045,5.3093714e-07,2.475201e-05,3.198291e-09
1269,0.9934784,0.0021624507,0.0030674888,0.0011808833,0.00011074832
1270,0.9881953,0.011645396,0.0001155715,3.953261e-05,4.0769255e-06
1271,0.99932444,0.00036157676,0.00029696242,1.6949196e-05,1.2977662e-07
1272,0.9967751,0.0030926007,5.3516793e-05,7.8739875e-05,5.365909e-08
1273,0.992489,0.0073966263,5.298966e-05,5.9316008e-05,2.0978712e-06
1274,0.9971265,0.0028313654,3.3415035e-05,7.4473246e-06,1.2111955e-06
1275,0.99674916,0.001531392,0.0013535813,0.00035663176,9.244537e-06
1276,0.9951871,0.0016341023,0.001064091,0.0005983982,0.0015164445
1277,0.9682398,0.019796263,0.0061004995,0.0031470824,0.002716419
1278,0.9976792,0.0018759319,0.00041934513,2.5166093e-05,3.317606e-07
1279,0.9962991,0.0034745128,0.00019073606,3.4360084e-05,1.2617853e-06
1280,0.984562,0.01522076,0.00015460259,5.975925e-05,2.9498838e-06
1281,0.996956,0.0014538785,0.0002956574,0.0012829484,1.15730045e-05
1282,0.9989569,0.0010020077,2.9368015e-05,1.1296482e-05,4.3142336e-07
1283,0.9770551,0.022198807,0.00048573196,0.00024453728,1.5843256e-05
1284,0.9801161,0.019291444,0.00046437842,0.00011237996,1.5821424e-05
1285,0.9915255,0.008244054,0.00015668495,7.057732e-05,3.1334346e-06
1286,0.9971687,0.002233246,0.00021258226,0.00037135373,1.4123516e-05
1287,0.97194314,0.02798534,5.056001e-05,2.013178e-05,7.9962575e-07
1288,0.999848,0.00014932368,2.3859236e-06,2.2034675e-07,1.981495e-08
1289,0.99989676,5.908585e-05,4.1142026e-05,1.3608231e-06,1.5580309e-06
1290,0.9609382,0.038985908,4.5809546e-05,2.9634464e-05,4.9086884e-07
1291,0.982793,0.0033256176,0.012812456,0.0010090631,5.9843962e-05
1292,0.9655249,0.03270864,0.0008977218,0.0008139064,5.4799882e-05
1293,0.94316995,0.039938048,0.0033384152,0.013444823,0.00010887056
1294,0.99126023,0.0077032177,0.00069439335,0.00033615367,6.063298e-06
1295,0.98973083,0.0067290417,0.002423287,0.0006069859,0.000509808
1296,0.9973832,0.0026037232,1.0252911e-05,2.856791e-06,3.16993e-08
1297,0.94629073,0.049849324,0.0028536613,0.00080630777,0.00019993464
1298,0.99425656,0.0056687426,5.546138e-05,1.7877075e-05,1.3536232e-06
1299,0.9919058,0.0075162,0.0004219074,0.00015265944,3.432699e-06
1300,0.99201655,0.002662866,0.001648737,0.0031398938,0.00053197425
1301,0.99471694,0.0052315393,1.1306408e-05,4.0069448e-05,1.9721789e-07
1302,0.9245808,0.07345008,0.0008512817,0.0010331135,8.466323e-05
1303,0.9968489,0.0031191316,2.406385e-06,2.9448138e-05,6.5285114e-08
1304,0.9959644,0.0039123227,5.919761e-06,0.000116951065,3.1056607e-07
1305,0.9973355,0.0026544388,4.8794736e-06,2.6382777e-06,2.5424388e-06
1306,0.951454,0.048035104,0.0003673543,0.00012503046,1.859341e-05
1307,0.99927527,0.0007207255,2.3560524e-06,1.4979009e-06,1.9703312e-07
1308,0.9812231,0.016966525,0.0009703988,0.00081722316,2.2669468e-05
1309,0.99747,0.002439068,6.150472e-06,8.485575e-05,4.022027e-08
1310,0.9999316,6.5994434e-05,1.6545514e-09,2.4085239e-06,2.1225902e-13
1311,0.9949238,0.004957512,6.6919194e-05,5.1306135e-05,5.271421e-07
1312,0.9950782,0.003486061,9.5316045e-06,0.0014259267,1.793577e-07
1313,0.9885534,0.009132658,0.00086275215,0.0013620515,8.926508e-05
1314,0.98122877,0.013690156,0.0038611141,0.001003579,0.0002164084
1315,0.9838668,0.015988713,0.0001060033,3.6287198e-05,2.1990109e-06
1316,0.99973804,0.00025871722,2.9922496e-06,2.6268177e-07,2.3968503e-09
1317,0.995291,0.004481638,0.00019277682,2.6849631e-05,7.697831e-06
1318,0.99994576,5.3523945e-05,6.978435e-07,5.4758775e-08,2.9699358e-11
1319,0.99540085,0.0043857885,9.081837e-05,0.000113732545,8.783613e-06
1320,0.99940395,0.00047244597,0.00011380096,9.579926e-06,9.667141e-08
1321,0.9012148,0.048376966,0.04627859,0.0038769597,0.00025281362
1322,0.9977042,0.00057255256,0.0016062895,0.000115848336,1.0159565e-06
1323,0.99790466,0.0005279418,0.0013267437,0.00023991508,7.473723e-07
1324,0.98012996,0.019507358,0.00025167796,0.000102402366,8.665381e-06
1325,0.99757487,0.0005353275,0.0013322718,0.0005539559,3.6095992e-06
1326,0.99940765,0.0005844985,5.941235e-06,1.9261602e-06,4.3441823e-09
1327,0.9375713,0.060263712,0.0013212734,0.00080494233,3.871703e-05
1328,0.99078524,0.007870413,0.000927639,0.00037637408,4.0277875e-05
1329,0.99485767,0.0049830405,0.0001224332,2.6096082e-05,1.0820039e-05
1330,0.99599576,0.0039041361,8.416297e-05,1.2142102e-05,3.7548602e-06
1331,0.9854961,0.01007041,0.0021466704,0.001998073,0.0002888055
1332,0.99054843,0.0094323605,8.302852e-06,1.0562009e-05,3.4588783e-07
1333,0.9889564,0.010990436,4.050146e-05,1.22074325e-05,5.0964223e-07
1334,0.99771845,0.0021039462,9.091773e-05,7.004979e-05,1.6678523e-05
1335,0.9996487,0.00016745625,0.00017142834,1.1998843e-05,4.522597e-07
1336,0.97842395,0.021174135,0.00028421846,0.00010822173,9.499007e-06
1337,0.99747676,0.0024467635,4.5574783e-05,3.052606e-05,3.0415399e-07
1338,0.99629587,0.0026648035,0.0005334442,0.00034968887,0.00015618707
1339,0.98471224,0.0033230598,0.0003841418,0.011566447,1.40613965e-05
1340,0.98703706,0.012126732,0.00061574846,0.00013909314,8.13667e-05
1341,0.99833006,0.001551981,0.000100531586,1.7303131e-05,1.3917611e-07
1342,0.9990049,0.000994834,1.6561471e-07,1.1197507e-07,2.6324357e-10
1343,0.99983704,0.00016275111,1.208409e-07,1.3877037e-07,1.1274363e-08
1344,0.98806167,0.00827973,0.0023489343,0.0011538721,0.00015569064
1345,0.9986523,0.0012879939,2.8649158e-05,2.9638577e-05,1.4852495e-06
1346,0.9956617,0.0043279794,7.267086e-06,2.8139996e-06,2.0786277e-07
1347,0.97889096,0.020386104,0.00037474293,0.00031641743,3.168358e-05
1348,0.9991479,0.0006169338,0.00019124954,4.292591e-05,9.3162697e-07
1349,0.9540254,0.019250654,0.0005095047,0.02613268,8.181764e-05
1350,0.99620026,0.0037198914,4.320766e-05,3.4470002e-05,2.1124279e-06
1351,0.99942434,0.0005756988,1.8071672e-08,3.557417e-09,2.2581997e-11
1352,0.99828076,0.0013694469,0.00020120545,0.00014704608,1.5314845e-06
1353,0.99818027,0.0017961179,9.501552e-06,1.3661752e-05,4.5425008e-07
1354,0.99198115,0.0030377612,0.0016930664,0.0012976393,0.001990343
1355,0.9983911,0.0003586861,0.00092946616,0.0003185584,2.0958878e-06
1356,0.99570906,0.0029687579,0.0012321722,8.836345e-05,1.6540046e-06
1357,0.98800194,0.01184545,0.00010975165,4.2082116e-05,7.3126535e-07
1358,0.99362177,0.005469093,0.00080158876,9.188104e-05,1.5661908e-05
1359,0.99638003,0.0035858867,2.407609e-05,9.83551e-06,9.665504e-08
1360,0.96323884,0.036154386,0.0003012368,0.00029030698,1.519121e-05
1361,0.9590134,0.026632885,0.012246266,0.00187208,0.00023543707
1362,0.9998611,0.00012697153,2.8864303e-08,1.1911711e-05,4.1481533e-11
1363,0.90431696,0.09404996,0.0012360952,0.000280871,0.00011612921
1364,0.99485815,0.005027071,9.2283684e-05,2.162407e-05,9.3319943e-07
1365,0.997672,0.0019125364,0.00016722317,0.00023298862,1.5212875e-05
1366,0.996212,0.0035072763,0.00018385788,9.601037e-05,7.7275797e-07
1367,0.99916744,0.0006681175,0.0001483211,1.6017275e-05,9.492282e-08
1368,0.9869828,0.012744569,0.00022642515,4.272337e-05,3.4325935e-06
1369,0.99475443,0.0030220018,0.00083294726,0.00068158837,0.0007089767
1370,0.9994462,0.00054085895,1.0245596e-05,2.5592965e-06,1.0430648e-07
1371,0.99521637,0.00441605,9.506382e-06,0.0003572575,8.0160964e-07
1372,0.999645,0.00028048945,7.160599e-05,2.8552477e-06,3.462307e-08
1373,0.9761337,0.023644445,0.0001336018,8.584857e-05,2.3871214e-06
1374,0.9944343,0.005497491,3.527376e-05,3.2139433e-05,8.3481e-07
1375,0.9906432,0.009248531,7.750563e-05,2.869621e-05,2.1013473e-06
1376,0.9995511,0.00040993784,3.0022096e-05,8.8799925e-06,9.866916e-08
1377,0.99798465,0.0019652015,1.3508043e-05,3.629995e-05,1.9438708e-07
1378,0.99860114,0.0011278404,0.00024333708,2.2030108e-05,5.713529e-06
1379,0.99932384,0.00047906776,3.53811e-07,0.0001967833,3.6453507e-10
1380,0.9943381,0.0056432853,3.9584384e-06,1.4485859e-05,6.363923e-08
1381,0.99971706,0.00016412244,0.00011070069,8.132552e-06,3.8084423e-08
1382,0.999706,0.0002060883,8.501629e-05,2.760234e-06,1.445323e-07
1383,0.99555653,0.0036156971,0.0006246804,0.00019985769,3.2489763e-06
1384,0.99709594,0.0027316257,4.8387115e-05,0.000120490615,3.57456e-06
1385,0.99931586,0.000675737,2.6160942e-06,5.781806e-06,7.744758e-08
1386,0.9993037,0.00041759334,0.0002602573,1.8320792e-05,1.665339e-07
1387,0.9911151,0.00887748,4.2281818e-06,3.2694586e-06,4.8555e-08
1388,0.9683114,0.006282106,0.018137228,0.00376531,0.0035037939
1389,0.9873997,0.012456535,0.000104994724,3.6239282e-05,2.5628908e-06
1390,0.99783427,0.0020225307,1.1055635e-05,0.00013088442,1.2717574e-06
1391,0.9941584,0.005683558,4.544531e-05,0.00011154737,1.043844e-06
1392,0.9992449,0.00074713933,4.2456254e-06,3.5469843e-06,2.2352113e-07
1393,0.9931853,0.005164081,0.0009941916,0.00045628496,0.00020007063
1394,0.9658568,0.03408155,4.0597297e-05,1.9532146e-05,1.6290276e-06
1395,0.99795485,0.0020342984,2.6226214e-06,8.090131e-06,1.3252138e-07
1396,0.8906747,0.061306473,0.019455263,0.021150596,0.007412973
1397,0.93304676,0.06629857,0.00045585827,0.00019283108,5.993935e-06
1398,0.99980897,0.0001270955,5.6300312e-05,6.982803e-06,6.60883e-07
1399,0.98407125,0.015849346,3.8586204e-05,3.9851137e-05,9.412719e-07
1400,0.9747703,0.0025215277,0.00036343257,0.022338348,6.339137e-06
1401,0.9881319,0.0026209403,0.00052933674,0.00871588,1.9826487e-06
1402,0.9933861,0.0058459723,0.00047904634,0.00023661446,5.2396757e-05
1403,0.99564016,0.0021403492,0.002095282,0.00010137785,2.2838827e-05
1404,0.9921325,0.0075569786,0.0002528507,5.5386514e-05,2.4164094e-06
1405,0.9933867,0.0065287235,6.979223e-05,1.4486717e-05,2.4447024e-07
1406,0.9896399,0.009001308,0.0009159439,0.00035218947,9.0708316e-05
1407,0.9989605,0.00091012823,0.00011758568,1.1567909e-05,7.225514e-08
1408,0.99336046,0.0066262996,1.1617208e-05,1.5401554e-06,8.500458e-08
1409,0.99199015,0.007647674,0.00028849332,6.391345e-05,9.856844e-06
1410,0.9299884,0.06592583,0.0018439741,0.00213993,0.00010190689
1411,0.9397146,0.060144898,0.0001035384,3.6195444e-05,7.56348e-07
1412,0.9949097,0.0029662445,0.0018373639,0.00028456276,2.126769e-06
1413,0.9946902,0.0049866866,0.00022960918,9.22454e-05,1.253204e-06
1414,0.98680604,0.008516646,0.0039410624,0.0006889561,4.7260663e-05
1415,0.9977456,0.001140613,0.0008093308,0.00030355217,7.8644666e-07
1416,0.99467987,0.0032228408,0.0014147898,0.00067702105,5.5134938e-06
1417,0.99953806,0.00042491115,1.9364973e-07,3.6807538e-05,1.8338355e-09
1418,0.97623104,0.023430806,0.00025388628,6.9582355e-05,1.4637201e-05
1419,0.98052233,0.019299924,0.000116089184,6.0169037e-05,1.3840599e-06
1420,0.9964624,0.0035000672,3.9446636e-06,3.3595166e-05,3.887791e-08
1421,0.99434763,0.0045139506,0.00073053123,0.00040318517,4.7630365e-06
1422,0.9970483,0.0028122233,0.00011921842,2.0192208e-05,1.5654452e-07
1423,0.99806577,0.0012789922,0.000274956,0.0003517202,2.8511053e-05
1424,0.99602807,0.0006544763,7.6917466e-05,0.0032345778,5.9439735e-06
1425,0.99299663,0.0069577056,1.3274835e-05,3.205464e-05,3.023761e-07
1426,0.99032426,0.00470537,0.0041728397,0.0005925023,0.00020501117
1427,0.9757663,0.023989987,0.00017679461,6.1536564e-05,5.402449e-06
1428,0.99799925,0.0019864787,3.5385344e-06,1.0577571e-05,8.7694154e-08
1429,0.99551916,0.0012315115,0.0023284655,0.0009170085,3.841647e-06
1430,0.9941375,0.0047741514,0.0006779399,0.00033605585,7.431181e-05
1431,0.959529,0.03842125,0.0011001971,0.0008980762,5.149072e-05
1432,0.6877108,0.3113383,0.00039426654,0.00045427232,0.00010236673
1433,0.99911696,0.0008678574,1.1187279e-05,3.956591e-06,1.1414689e-08
1434,0.9439293,0.045368098,0.008785032,0.0017851074,0.00013244044
1435,0.9842605,0.015612096,8.561284e-05,3.8643604e-05,3.11757e-06
1436,0.9965592,0.002475141,0.00087368296,9.049205e-05,1.4457182e-06
1437,0.98984116,0.00726958,0.0016781422,0.0011819644,2.9064246e-05
1438,0.9961194,0.0016608497,0.0010758683,0.0011316681,1.2320571e-05
1439,0.99666166,0.0033009618,5.056191e-06,3.2312368e-05,4.596033e-08
1440,0.99374145,0.00614558,9.936816e-05,1.0722769e-05,2.7946683e-06
1441,0.94039285,0.05872791,0.000406215,0.00039334252,7.974139e-05
1442,0.43002218,0.005030407,0.0048253653,1.2424245e-05,0.5601097
1443,0.9841272,0.015828207,3.4041124e-05,9.78909e-06,7.1520265e-07
1444,0.98420703,0.0138321575,0.00068368757,0.0012641215,1.2991326e-05
1445,0.94785523,0.052020773,8.117485e-05,4.200081e-05,7.673739e-07
1446,0.99991393,8.609905e-05,1.9176292e-09,2.6071274e-09,3.5764321e-12
1447,0.99547595,0.0038635454,5.9422023e-06,0.00065434026,2.3788084e-07
1448,0.98064697,0.016531099,0.0025365297,0.00025126783,3.4082776e-05
1449,0.99340606,0.005081475,0.0011795474,0.00031908692,1.3859709e-05
1450,0.98153657,0.01826175,0.00014549449,5.3054293e-05,3.2177047e-06
1451,0.9995809,0.00040794464,2.0013836e-07,1.0896455e-05,1.0240929e-09
1452,0.9902299,0.0093246335,0.00031398237,0.00012988524,1.7024786e-06
1453,0.9953217,0.0046708016,1.7225173e-06,5.742003e-06,6.1259886e-09
1454,0.998185,0.0017364216,6.793268e-05,1.0200455e-05,3.935892e-07
1455,0.99355936,0.0063090124,6.1171144e-05,6.925289e-05,1.1972559e-06
1456,0.99156284,0.0027687892,0.0039583496,0.0010837384,0.0006261887
1457,0.9916726,0.007921253,0.00035380473,5.108237e-05,1.3225368e-06
1458,0.9902328,0.009658132,1.8941397e-05,8.967993e-05,4.2233128e-07
1459,0.9493695,0.04755234,0.0021865868,0.0008400873,5.1440442e-05
1460,0.98713374,0.012798408,4.8715618e-05,1.8004765e-05,1.2268953e-06
1461,0.9947903,0.00485916,4.337399e-05,0.00030475698,2.3843186e-06
1462,0.9973762,0.0026195666,1.1243386e-06,3.199728e-06,2.5430442e-08
1463,0.96291,0.03667115,0.00022622806,0.00017404064,1.8651057e-05
1464,0.99024594,0.009676298,6.198024e-05,1.5564028e-05,2.9069696e-07
1465,0.9984824,0.0014786483,1.8290107e-06,3.712733e-05,9.159633e-09
1466,0.99893826,0.0010585631,2.6094506e-06,6.201122e-07,5.044831e-08
1467,0.9526361,0.021033851,0.024931915,0.0013522223,4.5848552e-05
1468,0.9951969,0.004304848,0.00046160346,3.6456582e-05,2.2514632e-07
1469,0.98737353,0.011522838,0.00092302245,0.00013752082,4.3123306e-05
1470,0.97154367,0.027369015,0.00083652907,0.00022719362,2.3457691e-05
1471,0.9809405,0.004242375,0.00066359004,0.014106359,4.717015e-05
1472,0.9980148,0.001868355,5.3537893e-05,6.0805683e-05,2.502702e-06
1473,0.8840009,0.11253501,0.0026319416,0.00061808946,0.00021406155
1474,0.9965564,0.0027883034,0.0005362901,0.00011599536,2.996938e-06
1475,0.88931024,0.019243317,0.06763636,0.01485036,0.008959637
1476,0.93722844,0.060780693,0.0012179305,0.00074303494,2.9796747e-05
1477,0.9840242,0.015946202,1.5140724e-05,1.416917e-05,2.2016576e-07
1478,0.994584,0.0050498806,0.0002842204,7.912035e-05,2.769494e-06
1479,0.9869515,0.01293198,3.833724e-05,7.78441e-05,3.2425157e-07
1480,0.9966112,0.002323551,0.0008414145,0.00021967148,4.160089e-06
1481,0.99567646,0.0040797023,0.00017238101,7.091444e-05,4.2203396e-07
1482,0.9881328,0.011853691,9.941323e-06,3.4983764e-06,7.234839e-08
1483,0.9910189,0.008636923,2.4235476e-05,0.000316493,3.579768e-06
1484,0.9981937,0.0016546235,0.0001318699,1.9781475e-05,1.2963547e-07
1485,0.9985983,0.0013678845,2.8503096e-05,5.1637917e-06,7.51002e-08
1486,0.99876666,0.0008016805,0.00011418287,0.00022756276,9.006666e-05
1487,0.999845,0.0001520352,6.909533e-09,2.849018e-06,2.6854014e-12
1488,0.9628452,0.035479702,0.001041561,0.00060546416,2.8111688e-05
1489,0.993895,0.004291706,5.484309e-05,0.0017576194,8.507972e-07
1490,0.99784446,0.0018912458,0.00019866829,6.288004e-05,2.76999e-06
1491,0.9975581,0.002404773,1.0038964e-05,2.6873935e-05,1.831607e-07
1492,0.99608,0.0039188,6.3193124e-07,5.930492e-07,1.296776e-08
1493,0.89954734,0.05952192,0.03123099,0.008115587,0.0015841417
1494,0.95665145,0.04074493,0.0016322724,0.0009297025,4.16176e-05
1495,0.9744959,0.024807962,0.00046229607,0.00021892077,1.4826127e-05
1496,0.99983203,0.00015773774,8.011682e-06,1.067489e-06,1.2296254e-06
1497,0.9930774,0.0060309405,0.0005741092,0.00030118544,1.6301274e-05
1498,0.98801917,0.008215653,0.0032622314,0.0004737171,2.917486e-05
1499,0.9955787,0.0042883917,7.151693e-05,2.3816581e-05,3.75691e-05
1500,0.99492466,0.004966669,9.535443e-06,9.898932e-05,8.182157e-08
1501,0.99783903,0.0020854385,4.953374e-05,2.589277e-05,1.7355671e-07
1502,0.98855734,0.010965168,0.000103238424,0.00037078798,3.5873625e-06
1503,0.8708896,0.1098646,0.0110793635,0.0049152663,0.0032511696
1504,0.94875157,0.04341154,0.0028564297,0.0014870779,0.0034934601
1505,0.9968899,0.002640831,0.00033800994,0.00010962347,2.1606862e-05
1506,0.99848086,0.0010014452,0.00046513067,5.197126e-05,5.75469e-07
1507,0.9982344,0.0016082324,1.2903103e-06,0.00015597948,1.6141648e-08
1508,0.99816114,0.0018302177,3.5699832e-06,5.0828226e-06,4.9649127e-08
1509,0.98143196,0.017294044,0.000757511,0.00048790302,2.8556608e-05
1510,0.9780171,0.021237427,0.00047992883,0.00024238286,2.3178909e-05
1511,0.9999281,6.829146e-05,3.1600398e-06,4.7024702e-07,5.0021356e-09
1512,0.9999882,9.694005e-06,4.2100862e-10,2.1178287e-06,2.1796316e-14
1513,0.9991922,0.00080752413,1.6811221e-07,1.860066e-07,1.0813566e-09
1514,0.9969703,0.0028787015,1.9566536e-05,0.00013116992,2.4415476e-07
1515,0.9999546,4.4504e-05,6.2599387e-10,9.149847e-07,1.5288477e-13
1516,0.998431,0.0009825327,0.0005090866,6.7828616e-05,9.512182e-06
1517,0.9923132,0.0076404824,3.8594655e-05,6.312511e-06,1.3609879e-06
1518,0.9978703,0.002014363,2.6800586e-05,8.851235e-05,5.3232558e-08
1519,0.99893564,0.0010372057,2.4632e-05,2.4497424e-06,1.4148812e-07
1520,0.9931631,0.006098427,1.1481377e-05,0.0007257509,1.3229732e-06
1521,0.99957603,0.00041726802,5.8912383e-06,7.9918647e-07,1.6981245e-09
1522,0.9273871,0.05972303,0.010972224,0.0017518946,0.00016572684
1523,0.98520595,0.0119490605,0.0014299693,0.00024441117,0.0011705982
1524,0.9996117,0.00027283185,0.00010596323,9.542113e-06,5.6005383e-08
1525,0.97964376,0.0071867844,0.00095718756,0.012121773,9.054357e-05
1526,0.98849237,0.011475266,2.0891714e-05,1.1339913e-05,1.2284285e-07
1527,0.98624855,0.012362555,0.00094439567,0.00043461134,9.869442e-06
1528,0.99878734,0.0012084732,1.850659e-06,2.284209e-06,1.7829434e-08
1529,0.9997694,0.0002239613,4.699184e-06,1.9532665e-06,5.0532098e-08
1530,0.9698335,0.029783359,0.00017755751,0.0001899595,1.5585929e-05
1531,0.9880701,0.011022228,0.0006718231,0.00021112201,2.4766805e-05
1532,0.8688462,0.05767451,0.048925143,0.022041772,0.0025124368
1533,0.9415428,0.055788327,0.0013342064,0.0012971815,3.7435304e-05
1534,0.99112916,0.008325137,0.0003414481,0.00020248942,1.7569496e-06
1535,0.9990845,0.00087670545,3.411499e-07,3.8462265e-05,8.52901e-09
1536,0.9977106,0.002027582,0.00024526348,1.6098867e-05,4.3038654e-07
1537,0.999673,0.00032074025,3.9926017e-06,2.278896e-06,1.2318814e-08
1538,0.99871266,0.001240175,3.3176937e-05,1.3872581e-05,1.3839545e-07
1539,0.987576,0.012379756,3.52624e-05,8.650485e-06,4.0110632e-07
1540,0.9722587,0.010824159,0.016091177,0.00078635983,3.968782e-05
1541,0.9976931,0.0021475952,0.00010141537,5.5726e-05,2.0995203e-06
1542,0.99299437,0.006110439,0.00020641413,0.00068499096,3.744445e-06
1543,0.9799897,0.018988606,0.0005817645,0.00042599268,1.4065863e-05
1544,0.9971426,0.0027025256,0.00011015111,4.3863038e-05,7.815211e-07
1545,0.99391186,0.005879874,6.92097e-05,0.0001349458,4.1254957e-06
1546,0.99494416,0.004548887,0.00045126304,5.2375544e-05,3.3774631e-06
1547,0.97957313,0.017702611,0.0024109655,0.0002619394,5.1263607e-05
1548,0.99415094,0.0057124933,3.2368658e-05,0.000103657476,4.857489e-07
1549,0.994499,0.0054955953,8.926412e-07,4.5915876e-06,1.5377611e-09
1550,0.98774683,0.011611107,0.000507565,0.00013180255,2.7630194e-06
1551,0.9955285,0.004413285,2.0037623e-05,3.753251e-05,5.555972e-07
1552,0.99717015,0.0026948727,9.1821916e-05,4.3001193e-05,2.4598384e-07
1553,0.6395669,0.025966553,0.29719147,0.026000062,0.011275018
1554,0.9761945,0.023657724,9.218461e-05,5.3815387e-05,1.7476639e-06
1555,0.9619666,0.037484083,0.00029333297,0.0002448994,1.1075475e-05
1556,0.9919018,0.008010396,2.0338093e-05,6.682859e-05,5.5131454e-07
1557,0.9890809,0.0080756,0.00222043,0.0004890197,0.00013408145
1558,0.99954385,0.00045558612,4.2239105e-07,1.400744e-07,5.1828044e-09
1559,0.90343314,0.0953815,0.0009809203,0.00016782657,3.6628157e-05
1560,0.98693454,0.012673783,0.00027996243,0.000103687504,7.9541105e-06
1561,0.80571747,0.05786751,0.050717715,0.020959789,0.064737506
1562,0.99424654,0.005733677,5.5902337e-06,1.4075991e-05,1.07973264e-07
1563,0.99650747,0.003446752,1.2112918e-05,3.3401582e-05,2.7939382e-07
1564,0.9906266,0.009335177,1.12930375e-05,2.6605248e-05,3.508264e-07
1565,0.93039584,0.024262639,0.03355164,0.006519817,0.005270106
1566,0.9990024,0.0009829155,4.1251977e-07,1.4218936e-05,7.702496e-09
1567,0.9914038,0.0082923565,0.0002651558,3.20761e-05,6.6428465e-06
1568,0.99949515,0.00050110527,1.7244166e-06,1.0713887e-06,9.001947e-07
1569,0.99859565,0.0013968301,2.959847e-06,4.493703e-06,3.6475306e-08
1570,0.998691,0.0010987817,0.00012584895,4.4384993e-05,4.0040755e-05
1571,0.99453014,0.0051347697,9.474687e-05,0.00023945542,9.946788e-07
1572,0.99979395,0.0002048183,1.1342682e-06,1.2900338e-07,1.0612621e-09
1573,0.98235494,0.01750165,0.00010977139,3.266944e-05,9.296589e-07
1574,0.98852086,0.0114371115,1.731687e-05,2.3956061e-05,7.2043883e-07
1575,0.9824035,0.016648144,0.000664491,0.0002661586,1.7631102e-05
1576,0.9827623,0.016733538,0.0003578738,0.0001433913,2.92754e-06
1577,0.9985512,0.00081795483,0.00043436428,0.0001928333,3.6496856e-06
1578,0.98136514,0.006439252,0.011029618,0.0010107335,0.00015520335
1579,0.99931026,0.000678126,9.025977e-06,2.3690634e-06,2.589845e-07
1580,0.99625766,0.0037126557,1.708777e-05,1.2263675e-05,3.1578023e-07
1581,0.99522424,0.004637434,7.165474e-05,6.56646e-05,1.0606387e-06
1582,0.9593774,0.038436126,0.0013639786,0.0006516117,0.0001708423
1583,0.98150027,0.018440152,4.4073087e-05,1.4717861e-05,7.801014e-07
1584,0.98985773,0.009820051,0.00028356258,3.675118e-05,1.7272447e-06
1585,0.99431425,0.0053701825,0.00018217701,0.00012359415,9.664056e-06
1586,0.9956957,0.0042971554,3.0538506e-06,4.072078e-06,3.234019e-08
1587,0.9889237,0.0108430125,0.00014416582,8.6191394e-05,2.835848e-06
1588,0.9729149,0.009032527,0.014106678,0.0027724127,0.0011735127
1589,0.99788034,0.0020410027,1.9487738e-05,5.854906e-05,6.43899e-07
1590,0.9926629,0.0034597975,0.0014628371,0.0019997465,0.00041477595
1591,0.9915917,0.0030015863,0.004357404,0.0010099405,3.93076e-05
1592,0.99967563,0.0003077042,1.1042474e-05,5.0304507e-06,5.638984e-07
1593,0.9997837,0.0001890847,2.4978955e-05,2.19326e-06,1.4724722e-08
1594,0.99634933,0.002160211,0.0011888313,0.0002456353,5.5906756e-05
1595,0.9897265,0.010260103,9.328646e-06,3.9941315e-06,1.5291633e-07
1596,0.98839426,0.011472847,9.1943264e-05,3.962853e-05,1.2673319e-06
1597,0.9936225,0.0062677828,4.7407295e-05,6.190659e-05,5.171443e-07
1598,0.99686795,0.0029106685,5.041073e-06,0.00021624971,1.2934409e-07
1599,0.9825067,0.017395675,4.0864972e-05,5.488954e-05,1.7576012e-06
1600,0.9987852,0.001203528,6.278297e-07,1.0716589e-05,1.8041385e-08
1601,0.9480241,0.04328382,0.008301302,0.00038226868,8.520652e-06
1602,0.970433,0.029029787,0.0002682023,0.00025502822,1.3941879e-05
1603,0.94945663,0.050512783,1.0532035e-05,1.8844481e-05,1.1797632e-06
1604,0.92385083,0.075694114,0.0003217868,0.000101618156,3.1612057e-05
1605,0.9967173,0.0011749973,0.0018461606,0.0002431944,1.8312714e-05
1606,0.9971973,0.0010440256,0.00078427175,0.000380976,0.0005933842
1607,0.9991954,0.0007401093,2.638517e-05,2.9962252e-05,8.164309e-06
1608,0.9958782,0.0035630364,0.0005140134,4.3957574e-05,7.086802e-07
1609,0.9934968,0.0064185876,6.7941975e-05,1.6554803e-05,2.212463e-07
1610,0.9678123,0.031978264,0.00014187183,6.364566e-05,3.924928e-06
1611,0.9814021,0.018373987,8.0768965e-05,0.00014186499,1.3007923e-06
1612,0.9999447,5.044367e-05,4.791154e-06,1.0522094e-07,4.3418e-10
1613,0.9921405,0.007804693,4.7276582e-05,7.2803214e-06,2.9757425e-07
1614,0.9847211,0.0009829117,0.00032635627,0.013953368,1.6148762e-05
1615,0.9947025,0.0047235996,0.00048838626,7.920452e-05,6.3107823e-06
1616,0.9392878,0.051207583,0.005394189,0.0037217895,0.00038869397
1617,0.9868852,0.013026523,4.3620446e-05,4.362103e-05,9.27748e-07
1618,0.99104404,0.008915496,3.610695e-05,4.203339e-06,1.8821787e-07
1619,0.9920625,0.0073985583,0.00032803704,0.00020382741,7.096481e-06
1620,0.99564123,0.004301332,3.9072205e-05,1.638626e-05,1.9625304e-06
1621,0.9512291,0.04755356,0.0009167268,0.0002851961,1.541141e-05
1622,0.99131024,0.006616384,0.0012832802,0.00021401375,0.00057608087
1623,0.9950959,0.0011019208,0.00010468032,0.003691346,6.152099e-06
1624,0.99649954,0.00222074,0.001121772,0.00014571784,1.22712745e-05
1625,0.99721956,0.0027658977,7.689694e-06,6.802077e-06,5.511679e-08
1626,0.99894327,0.0010198101,2.5898915e-05,1.0843916e-05,1.5497753e-07
1627,0.999663,0.00033699084,1.3852891e-08,1.8329185e-08,2.6418569e-11
1628,0.9897419,0.010183301,3.7806116e-05,3.6200505e-05,8.246708e-07
1629,0.9974222,0.0025719143,4.2176653e-06,1.5417452e-06,7.535433e-08
1630,0.8611275,0.02969435,0.080082886,0.026608162,0.0024871062
1631,0.9877806,0.0050983634,0.0011832624,0.005674592,0.00026313594
1632,0.99759585,0.002162132,0.00020216028,3.355249e-05,6.270507e-06
1633,0.99967456,0.00014004165,0.000107316526,7.795628e-05,7.7938395e-08
1634,0.9975146,0.0019436099,0.00027554657,0.00026371842,2.518673e-06
1635,0.99889,0.0010774357,2.9182875e-05,3.28292e-06,8.209143e-08
1636,0.99215114,0.007828572,1.15112e-05,7.5560934e-06,1.3122659e-06
1637,0.99476576,0.005022256,7.107669e-05,0.00014047495,4.733482e-07
1638,0.9953265,0.00239531,0.0013268379,0.00067512,0.00027626002
1639,0.98311156,0.016823089,5.7145717e-05,8.036906e-06,1.3201313e-07
1640,0.96914667,0.030533615,0.00021344448,0.00010073148,5.5938376e-06
1641,0.9964647,0.0035316017,7.5636234e-07,2.9573725e-06,1.0287822e-08
1642,0.99185044,0.008125086,9.182012e-06,1.519728e-05,1.2378581e-07
1643,0.95951676,0.022198463,0.01337142,0.004576633,0.0003367782
1644,0.4147857,0.58020526,0.0016405992,0.00038238804,0.0029860626
1645,0.99871564,0.001280151,1.1996786e-06,2.230233e-06,7.843367e-07
1646,0.9706787,0.024655169,0.004292345,0.00035155192,2.2200784e-05
1647,0.99904746,0.0008684093,3.1375541e-06,8.093279e-05,4.0960035e-08
1648,0.99995685,4.2471696e-05,5.4915046e-07,1.7014776e-07,2.9170122e-10
1649,0.99535686,0.00463719,5.1353218e-06,7.9843574e-07,3.165675e-08
1650,0.99946624,0.00051909586,1.3018754e-05,1.6657442e-06,1.8595676e-08
1651,0.9980044,0.001491747,0.0004046094,9.55932e-05,3.7417503e-06
1652,0.998961,0.00086723093,1.100431e-06,0.00017069787,1.7471317e-08
1653,0.9938413,0.0061469483,4.028978e-06,7.6004744e-06,1.1542593e-07
1654,0.9995197,0.00036060737,9.586561e-05,1.3258144e-05,1.0581033e-05
1655,0.99397755,0.0054380195,5.2701813e-05,0.0005311377,6.4692233e-07
1656,0.9893426,0.010395825,6.6035216e-05,0.00018959458,5.991741e-06
1657,0.9881742,0.011649696,0.00010142103,7.390862e-05,8.6008936e-07
1658,0.99993193,5.6998255e-05,1.04055005e-08,1.1128592e-05,1.6339453e-12
1659,0.97972155,0.016998213,0.0026791745,0.000550183,5.079573e-05
1660,0.99946195,0.00052665954,5.6560407e-07,1.0848377e-05,7.2588984e-09
1661,0.9954497,0.0037594612,0.00036397847,0.00037487794,5.1935982e-05
1662,0.96744543,0.031638388,0.00072079344,0.00018068709,1.4681093e-05
1663,0.96671057,0.021385474,0.0033347472,0.008216217,0.0003529813
1664,0.9944877,0.0034340331,0.0017047003,0.00029708125,7.659072e-05
1665,0.98858184,0.011279766,0.00012223488,1.552829e-05,7.213255e-07
1666,0.93955076,0.058021296,0.0013595299,0.0009952331,7.312491e-05
1667,0.99931765,0.00065554,1.989797e-05,6.8168233e-06,1.6872652e-07
1668,0.9955205,0.0043312795,4.5460296e-05,0.00010200405,7.109393e-07
1669,0.98861104,0.01082635,0.00043859848,0.000121342775,2.7514418e-06
1670,0.9975399,0.0024553172,6.232468e-07,4.212414e-06,1.0062344e-08
1671,0.9842057,0.015137358,0.00039622674,0.00024757892,1.319456e-05
1672,0.9995223,0.00045809997,1.8049375e-05,1.5015197e-06,3.096193e-08
1673,0.9998908,0.000109147244,1.16007035e-08,7.903466e-09,1.1276743e-10
1674,0.923733,0.072812065,0.0023211783,0.00094310654,0.00019059733
1675,0.9989718,0.00093264284,7.433667e-05,2.117712e-05,5.608473e-08
1676,0.9879255,0.011909424,7.8182195e-05,8.100756e-05,5.7122365e-06
1677,0.99925655,0.0007256903,7.534651e-07,1.6960366e-05,1.2850445e-08
1678,0.99895453,0.0004317848,0.00056608766,4.3298165e-05,4.2512215e-06
1679,0.97548836,0.02046428,0.0013611318,0.0026221692,6.4112726e-05
1680,0.93313795,0.0031583712,0.0007686756,0.062928736,6.2361755e-06
1681,0.99684995,0.00312454,1.9615101e-05,3.3276244e-06,2.556159e-06
1682,0.96293044,0.026232475,0.009011353,0.0016301353,0.00019554562
1683,0.99173826,0.007867933,0.00028579973,0.0001062781,1.7930964e-06
1684,0.9117331,0.011653772,0.069486655,0.006321045,0.00080544717
1685,0.9999515,4.1587366e-05,5.093282e-09,6.918007e-06,1.490733e-12
1686,0.99694985,0.0027294755,8.480741e-06,0.000311948,2.68741e-07
1687,0.96118414,0.03871194,6.770221e-05,3.5263976e-05,8.7448296e-07
1688,0.99907994,0.00080967345,1.3326405e-06,0.00010904292,4.044747e-09
1689,0.98887026,0.011097849,1.3928576e-05,1.7378952e-05,5.6455286e-07
1690,0.98850983,0.0053021684,0.004099016,0.001469121,0.0006198422
1691,0.99906427,0.0008319625,9.203871e-07,0.0001028534,3.2996887e-09
1692,0.978437,0.020978425,0.0003874956,0.00013044849,6.660617e-05
1693,0.9989297,0.0010326718,2.4653096e-05,1.1110707e-05,1.9093352e-06
1694,0.9972486,0.0011651752,0.0014591941,7.9016696e-05,4.806144e-05
1695,0.8483146,0.14795803,0.0020465415,0.0015464064,0.00013443928
1696,0.99627656,0.0036927608,1.7629603e-05,1.15881585e-05,1.3671068e-06
1697,0.99436826,0.0054352023,0.00013807818,5.8073925e-05,3.8652823e-07
1698,0.92076635,0.079152666,5.317797e-05,2.7101347e-05,8.151602e-07
1699,0.9975931,0.0012180792,0.001101889,8.554864e-05,1.3099437e-06
1700,0.9920718,0.0025578716,0.00019783416,0.005160542,1.1886543e-05
1701,0.89299864,0.10459719,0.0018205448,0.000407163,0.00017643286
1702,0.99444205,0.0055124466,2.6448375e-05,1.7811482e-05,1.3369648e-06
1703,0.9843465,0.013383243,0.0017039323,0.00055185164,1.4408073e-05
1704,0.27688453,0.053750094,0.39742446,0.09852571,0.17341518
1705,0.9925108,0.0052844174,0.00055487454,0.0016415613,8.4379735e-06
1706,0.9859665,0.013854956,0.00011249786,6.539128e-05,7.029932e-07
1707,0.9684184,0.03110935,0.00031704738,0.0001533312,1.757711e-06
1708,0.9949944,0.0035277512,0.0010377356,0.000327217,0.000112835936
1709,0.9682861,0.03162086,4.640834e-05,4.6246325e-05,3.775887e-07
1710,0.99639505,0.0035336642,9.462271e-06,6.164e-05,1.354476e-07
1711,0.9842225,0.01493541,0.00049743627,0.00032675022,1.7870378e-05
1712,0.97057545,0.028575115,0.0005375929,0.00029572533,1.6250955e-05
1713,0.98471904,0.015201347,3.955293e-05,3.824531e-05,1.7338267e-06
1714,0.99299544,0.0056111678,0.00064527476,0.0007258724,2.2311042e-05
1715,0.9977036,0.0019816249,0.00016571944,0.00011142559,3.7701175e-05
1716,0.9960044,0.003561998,0.00038123984,4.3508593e-05,8.959525e-06
1717,0.99145424,0.00827653,0.00018077766,8.735353e-05,1.1046943e-06
1718,0.99490273,0.002305191,0.0025590071,0.00021722094,1.5946353e-05
1719,0.9996753,0.00027137937,4.870076e-05,4.6668024e-06,4.067512e-08
1720,0.9432344,0.053218022,0.0021480191,0.0013015459,9.795278e-05
1721,0.9944418,0.0027304136,0.0024963738,0.00032703904,4.3541227e-06
1722,0.99636084,0.0036295708,7.2928365e-06,2.1072365e-06,2.1996138e-07
1723,0.992935,0.003987159,0.0016693374,0.0008310916,0.00057744124
1724,0.99437535,0.0054137693,2.5587082e-05,0.00018490852,3.8224024e-07
1725,0.97828,0.021478435,0.00012914132,0.00010915114,3.391532e-06
1726,0.99658585,0.0033023418,9.878019e-05,1.1515729e-05,1.496212e-06
1727,0.9878641,0.011661937,0.00031741124,0.0001498844,6.681669e-06
1728,0.9999008,9.542037e-05,5.1511158e-08,3.6107149e-06,4.8912516e-11
1729,0.99640286,0.002958392,0.0005056366,0.00012688388,6.319797e-06
1730,0.99932265,0.0006614981,1.0841725e-05,4.8515412e-06,1.5822664e-07
1731,0.9932366,0.005982749,0.00051095604,0.00026347165,6.1564006e-06
1732,0.999383,0.00061334687,3.119587e-06,5.326469e-07,1.8859971e-09
1733,0.97570395,0.024253277,2.6115607e-05,1.6434129e-05,1.9174765e-07
1734,0.9924384,0.007044122,0.00034205665,0.0001582612,1.7171073e-05
1735,0.99804187,0.0018773014,6.54382e-05,1.5045976e-05,3.697928e-07
1736,0.99799097,0.0019914669,1.5146763e-05,2.2629936e-06,2.4755892e-07
1737,0.99983,0.00015232564,1.2494376e-05,5.1780657e-06,6.3694423e-09
1738,0.972955,0.0019536833,0.00063582126,0.024417706,3.7772374e-05
1739,0.99993324,6.4010004e-05,2.2776931e-09,2.6904634e-06,4.0052832e-13
1740,0.9967932,0.0015970538,0.0014364303,0.000114486116,5.8813544e-05
1741,0.963254,0.036079902,0.00043673837,0.00020629841,2.3077626e-05
1742,0.99864787,0.0013064992,5.8995024e-06,3.9511542e-05,2.0388981e-07
1743,0.9925884,0.0073458515,3.5732155e-05,2.8165901e-05,1.7607484e-06
1744,0.8999703,0.09990385,9.502144e-05,2.6406668e-05,4.372988e-06
1745,0.9794139,0.0113888895,0.0005258784,0.008664784,6.500611e-06
1746,0.99566406,0.0040876856,0.0001170807,0.00012517661,6.07155e-06
1747,0.98687464,0.012278157,0.00064777833,0.00018351515,1.602738e-05
1748,0.99869895,0.0012844581,9.294539e-06,6.5949653e-06,7.724849e-07
1749,0.9955842,0.004400811,6.3260327e-06,8.591113e-06,1.2783167e-07
1750,0.9864342,0.012030385,0.0013324915,0.00018484972,1.8167444e-05
1751,0.99418783,0.0057336856,5.5612145e-05,2.0720088e-05,2.0913396e-06
1752,0.97636014,0.022031065,0.000785116,0.00070290687,0.00012064235
1753,0.9997764,0.00022242437,9.581261e-07,2.6974053e-07,8.138672e-09
1754,0.99707115,0.0025681823,0.00025941076,9.634277e-05,4.9004175e-06
1755,0.9998547,0.00014523734,7.8758235e-09,6.613691e-09,5.4397698e-11
1756,0.99034065,0.00961114,3.502355e-05,1.1970893e-05,1.3354896e-06
1757,0.9827321,0.01632274,0.00079145905,0.00014984516,3.8383737e-06
1758,0.99844474,0.0007624808,0.0007314362,6.08121e-05,6.4511283e-07
1759,0.97195756,0.02644489,0.0008392436,0.0007330229,2.5272027e-05
1760,0.9933349,0.006651715,3.852723e-06,9.293146e-06,2.498888e-07
1761,0.98624206,0.013357476,0.00030819018,8.278088e-05,9.575329e-06
1762,0.9385461,0.05368697,0.0044512283,0.0022220872,0.0010936406
1763,0.9989343,0.0010621377,1.6820906e-06,1.8809349e-06,1.6701579e-08
1764,0.99533504,0.0040052235,0.00060063595,5.3408043e-05,5.7349716e-06
1765,0.99832803,0.0016089893,3.8444618e-05,2.3923563e-05,5.7257506e-07
1766,0.993778,0.0017931401,0.0041168663,0.00028307288,2.8984698e-05
1767,0.99894637,0.0010379278,3.596158e-07,1.530748e-05,1.8153165e-09
1768,0.9986482,0.00051009044,0.00017376202,0.00010755668,0.0005603156
1769,0.9964491,0.0032061946,0.00018687536,0.00015022345,7.6332335e-06
1770,0.99974996,0.00024967242,1.112262e-07,2.6795277e-07,4.471334e-10
1771,0.9990969,0.00088690105,1.5928244e-06,1.46467255e-05,2.0998689e-08
