,0,1,2,3,4
0,0.9998516,0.00014087975,1.681611e-07,7.389205e-06,1.7893186e-08
1,0.9861525,0.0036414121,0.010038975,8.680443e-05,8.032201e-05
2,0.99794596,0.0019700935,5.417648e-06,7.679486e-05,1.8170936e-06
3,0.99998426,1.02541635e-05,1.7094002e-06,3.7770224e-06,1.0461804e-09
4,0.99957186,0.00017651341,0.00024715796,3.1753568e-06,1.309665e-06
5,0.9999964,3.10336e-06,3.164242e-10,5.2230837e-07,3.076828e-12
6,0.99995553,3.859166e-05,1.13569364e-07,5.679853e-06,4.1587592e-10
7,0.99976426,0.00023565604,8.899567e-09,1.0520235e-07,2.3648472e-10
8,0.9999542,3.7894337e-05,6.084229e-08,7.78983e-06,3.444571e-11
9,0.9996574,0.0003150808,2.5311161e-05,2.2006423e-06,6.74153e-09
10,0.99988997,9.7010205e-05,3.8027326e-07,1.2620177e-05,6.402355e-10
11,0.99996173,4.765966e-06,9.709096e-08,3.3382905e-05,2.8527722e-09
12,0.9914022,3.849096e-05,2.959133e-06,0.008555835,4.568879e-07
13,0.9994997,0.0005002686,4.305637e-09,4.1084775e-08,9.459433e-11
14,0.9999522,4.617868e-05,1.6838013e-06,1.2910509e-08,3.104328e-11
15,0.99933606,0.0006524277,7.4695167e-06,3.9976485e-06,1.7883373e-09
16,0.99996984,3.0073423e-05,4.1084427e-08,1.3355785e-07,6.891489e-14
17,0.9898078,0.0001142736,8.587743e-06,0.010067862,1.5285257e-06
18,0.999985,1.4773498e-05,2.2326223e-08,2.000704e-07,4.791565e-14
19,0.9999858,6.9610105e-06,5.1481597e-06,2.082748e-06,4.6808903e-08
20,0.99999714,2.722196e-06,6.3669624e-08,3.6327645e-08,4.5941058e-14
21,0.9997167,0.00028325315,2.8561942e-09,6.4074445e-12,1.4186588e-10
22,0.9999993,7.479789e-07,8.8407545e-11,4.8583106e-09,1.2523641e-13
23,0.9926052,0.00012852103,7.5695366e-06,0.0072569167,1.7419978e-06
24,0.9999995,4.5979814e-07,4.8844787e-12,1.9711303e-12,4.0355306e-14
25,0.99998856,1.0130412e-05,1.2206941e-10,1.2641339e-06,1.6700685e-12
26,0.9999764,2.3591621e-05,5.208772e-15,1.8867687e-12,7.8925974e-14
27,0.99903667,0.00092091714,1.1395474e-05,3.098763e-05,6.9893527e-09
28,0.9999881,9.252801e-06,1.6785146e-08,2.643383e-06,2.910949e-11
29,0.9999893,1.07676415e-05,4.230718e-08,4.854036e-10,7.000616e-11
30,0.9997706,0.00011679798,3.4107584e-06,0.000109267945,2.9790965e-09
31,0.97108084,6.860345e-05,7.159258e-06,0.028841555,1.8676507e-06
32,0.9999244,7.061279e-05,4.903387e-06,7.478456e-08,1.6081566e-08
33,0.99998724,1.8111242e-06,1.3968921e-08,1.1004312e-05,3.5740047e-10
34,0.9927549,0.0027373496,0.0031935691,0.0012938798,2.030471e-05
35,0.9997888,6.93202e-05,4.4162898e-05,9.765811e-05,3.5441527e-08
36,0.99999464,4.045436e-07,4.8958063e-06,1.0010597e-07,2.3625752e-09
37,0.9704377,0.020775422,0.00041000062,0.007882991,0.00049391715
38,0.99999857,1.3925677e-06,1.668495e-10,1.05507804e-10,8.629834e-13
39,0.9809729,1.4259565e-05,5.9720884e-07,0.019012118,1.6664619e-07
40,0.9999895,1.0438459e-05,2.1156603e-09,5.4386048e-11,1.2163462e-11
41,0.9965366,0.0030489683,0.00020940328,0.00016751191,3.7546626e-05
42,0.9999932,6.822479e-06,8.639095e-09,1.4572363e-08,6.199499e-13
43,0.9999087,8.442967e-05,3.6850324e-08,6.911565e-06,7.51711e-11
44,0.99995565,4.098658e-05,2.3969985e-06,8.842604e-07,8.435386e-09
45,0.99993885,6.118236e-05,2.1930101e-10,1.7775562e-14,1.7386221e-11
46,0.99999356,2.29828e-06,2.1132801e-10,4.21906e-06,7.652742e-11
47,0.9997985,4.8948787e-06,0.000178935,1.7746761e-05,3.8036486e-08
48,0.99999535,8.6830636e-07,1.3332541e-07,3.7065743e-06,1.73469e-10
49,0.9999993,7.6918224e-07,8.0788604e-13,1.3521396e-08,1.559112e-10
50,0.99999976,2.0086178e-07,4.1619794e-15,8.384188e-09,1.751325e-12
51,0.99994266,5.3240223e-05,8.470994e-08,3.9899633e-06,7.382312e-10
52,0.9987764,0.00077328307,0.00011073267,0.00026014674,7.944605e-05
53,0.9998418,0.00014636702,1.4120621e-07,1.1602056e-05,3.2925632e-10
54,0.99999607,8.865507e-07,6.9591033e-10,3.149045e-06,1.2766772e-11
55,0.9975649,0.0006906994,0.0016878056,2.9031951e-05,2.7618069e-05
56,0.9678657,0.03212279,9.767869e-07,1.022199e-05,3.832535e-07
57,0.9996141,0.00027026335,9.443473e-05,2.1127416e-05,1.19345245e-08
58,0.98114,0.009559285,0.0030807408,0.005838514,0.00038146245
59,0.99934095,0.00065428053,2.2854499e-07,4.485826e-06,4.894018e-11
60,0.99994946,4.974124e-05,8.3663144e-07,1.6798847e-08,1.4302315e-12
61,0.9737142,0.01688367,0.0032207149,0.0061788177,2.5797297e-06
62,0.9974131,0.0023401906,1.4754528e-05,0.00023169942,2.947709e-07
63,0.9999517,4.8316608e-05,4.6065415e-10,6.7433206e-13,2.8212323e-11
64,0.9988839,0.0011097243,1.0816681e-06,5.3901026e-06,1.5316332e-09
65,1.0,3.5575265e-08,7.3120485e-14,1.4563362e-10,3.177242e-15
66,0.99998724,1.1115896e-05,1.2458672e-06,3.9450293e-07,1.1417183e-08
67,0.99955446,0.00029079552,0.00013676577,1.7972641e-05,1.7493505e-08
68,0.9999237,5.1503666e-05,5.0644353e-06,3.175369e-06,1.659333e-05
69,0.9999298,6.677676e-05,1.4828845e-07,3.3178758e-06,3.8212192e-10
70,0.9999747,2.4954272e-05,3.305327e-07,1.2615403e-08,1.9184215e-10
71,0.9999993,1.8547799e-07,2.0936207e-07,3.1244903e-07,1.6905805e-10
72,0.9998851,0.00011312247,6.0999395e-07,1.1508693e-06,2.6814326e-10
73,0.99980086,0.00019551192,6.162874e-08,3.6426216e-06,6.9479145e-11
74,0.99997413,2.4112016e-05,8.286711e-08,1.7125222e-06,5.356894e-10
75,0.99999535,4.3334985e-06,7.883184e-09,3.3178796e-07,1.8794853e-11
76,0.9999727,2.6807564e-05,4.7712568e-08,4.8112037e-07,5.3764652e-11
77,0.9830808,0.016916888,8.8158833e-07,1.4092229e-06,3.413412e-10
78,0.9999914,6.610922e-06,2.0199758e-08,1.6309291e-06,3.3596478e-07
79,0.99999714,2.827482e-06,3.8271202e-11,2.062191e-08,2.6643434e-13
80,0.9595932,0.040404953,2.7586427e-07,1.5145678e-06,3.3569446e-08
81,0.99990106,9.8168115e-05,5.4175325e-07,2.2916667e-07,4.9175874e-10
82,0.9996264,0.00037295854,2.0367455e-08,5.3666855e-07,4.0592002e-11
83,0.9999436,5.2521285e-05,3.6655679e-06,1.0968481e-07,3.7331265e-08
84,0.99984276,0.00015518315,1.1857944e-06,8.350166e-07,2.6750208e-10
85,0.9998203,7.793419e-05,9.5470394e-05,5.7646944e-06,5.5776144e-07
86,0.9418589,4.712684e-05,4.7038848e-06,0.058088433,8.0498086e-07
87,0.99930537,0.00069422915,1.1329292e-08,3.567175e-07,1.116603e-09
88,0.999813,0.00016920497,5.2308036e-07,1.7188737e-05,5.2490606e-10
89,0.9999975,1.7969583e-07,2.3392721e-07,2.066982e-06,2.4304694e-10
90,0.9999678,2.5996855e-05,1.1976117e-06,5.0190574e-06,1.9851672e-08
91,0.9998871,1.7434746e-06,8.512475e-05,2.5984371e-05,3.7274088e-08
92,0.9997193,0.0002761664,9.491853e-07,3.5941614e-06,3.421994e-09
93,0.999877,0.00011457721,4.2254537e-06,4.2720053e-06,2.9535898e-09
94,0.99988365,0.00011595368,2.9483274e-07,1.1408105e-07,4.2931975e-10
95,0.9999485,5.1521256e-05,1.7045636e-09,4.7690915e-13,9.179953e-11
96,0.9998803,0.0001161555,1.2512551e-06,2.359294e-06,1.181058e-08
97,0.99999356,6.269587e-06,1.6481662e-08,9.5004204e-08,6.40551e-10
98,0.9834864,2.3460447e-05,2.1161693e-06,0.016487679,3.3867653e-07
99,0.992027,0.0009963945,0.005598744,0.0012651792,0.00011254652
100,0.9945938,0.0035893477,0.001669946,0.00014626372,7.247176e-07
101,0.99999464,4.2656643e-06,1.161316e-07,9.792229e-07,4.819203e-09
102,0.99879104,0.001207699,3.389186e-08,1.2875033e-06,1.4682344e-09
103,0.9999989,8.269711e-07,8.0946183e-10,2.055406e-07,3.096194e-11
104,0.99999917,7.8580166e-07,3.35714e-11,1.4625383e-08,1.3215957e-12
105,0.9998528,0.00013405166,7.8864105e-08,1.3011387e-05,1.7298107e-10
106,0.99303764,0.006925746,2.0753105e-06,3.2112905e-05,2.334229e-06
107,0.9999205,7.77558e-05,3.4331018e-07,1.4349638e-06,3.5587874e-10
108,0.9999914,2.1551189e-06,4.626577e-06,1.7599283e-06,6.40662e-10
109,0.99992526,5.2360534e-05,1.8945136e-06,2.0536814e-05,7.515155e-11
110,0.9999807,1.7236402e-05,6.086526e-08,2.0162304e-06,3.5050146e-10
111,0.9941685,0.0052358205,0.00014948107,0.00043733482,8.852842e-06
112,0.9997061,0.00029076473,9.3359046e-07,2.1275662e-06,4.3042003e-10
113,0.9997807,0.00020922841,5.1567295e-06,4.800713e-06,1.097397e-08
114,0.99825805,0.0010654535,1.8178205e-05,0.0006546071,3.6777074e-06
115,0.9999653,3.0927116e-05,3.824793e-06,3.08745e-08,3.2523095e-10
116,0.9999701,3.1833729e-06,1.1692493e-06,2.5586134e-05,7.24959e-10
117,0.9999291,3.6137124e-05,3.428077e-05,5.005548e-07,4.139336e-08
118,0.99808407,0.00023986395,0.0016636779,1.021954e-05,2.19096e-06
119,0.9998665,0.00013277848,4.4825853e-08,7.1261974e-07,5.464108e-10
120,0.9998851,1.1321933e-05,1.4129195e-05,8.9493646e-05,3.0315633e-12
121,0.9999511,4.8857222e-05,4.64298e-13,1.4735195e-08,1.1481976e-12
122,0.59858835,0.049011488,0.3243236,0.027344417,0.0007322033
123,0.99999976,2.508611e-07,3.6006827e-12,1.8844139e-08,6.279794e-15
124,0.99934775,0.0006056017,3.976256e-07,4.63466e-05,2.3646826e-10
125,0.99973446,0.00025432152,1.4038572e-07,1.1083598e-05,2.2440497e-08
126,0.9999926,4.636043e-06,1.1027251e-07,2.6437983e-06,5.082604e-12
127,0.9997907,0.00014991396,2.9659239e-05,2.9655135e-05,4.021064e-08
128,0.9999124,8.5220076e-05,3.6852342e-07,2.0197028e-06,3.2300451e-09
129,0.99997735,2.264871e-05,5.818469e-13,3.2618694e-08,3.154131e-10
130,0.9999802,1.6307422e-05,2.437675e-06,1.0618238e-06,1.10716405e-08
131,0.99977547,0.00021740726,4.866472e-06,2.3266275e-06,4.5181605e-11
132,0.9999484,4.1091503e-06,4.6945584e-05,1.4528278e-08,6.286268e-07
133,0.9999013,9.673331e-05,1.7289004e-06,2.255523e-07,4.4640873e-09
134,0.9999999,9.477567e-08,2.4066283e-12,1.5484388e-13,3.757421e-14
135,0.9999926,2.0213351e-06,5.714796e-09,5.346153e-06,1.7665985e-11
136,0.9998975,8.6623564e-05,6.214966e-07,1.5257894e-05,5.0107557e-10
137,0.9999968,3.1838524e-06,6.901621e-10,4.496106e-09,2.0300412e-11
138,0.9995183,0.0001090839,7.0510833e-07,0.00037193208,3.1913211e-12
139,0.99990463,9.5075666e-05,1.291973e-07,1.4124795e-07,5.166728e-13
140,0.9999238,5.19462e-05,9.197802e-06,1.4828235e-05,7.121317e-08
141,0.99990857,9.006392e-05,1.8235527e-07,1.164567e-06,8.211666e-09
142,0.9999951,4.672478e-06,6.115948e-09,1.940641e-07,4.3143308e-10
143,0.9994815,0.00047474477,2.566179e-06,4.1021995e-05,7.383139e-08
144,0.9999999,7.2352954e-08,4.6808434e-18,6.252879e-15,2.460981e-19
145,0.99999106,8.984122e-06,8.534282e-15,4.3889146e-09,1.4598016e-11
146,0.999984,1.5883288e-05,1.577134e-08,1.2334127e-07,8.801165e-15
147,0.99938285,3.3037617e-05,0.0005693891,1.3603151e-05,1.1278112e-06
148,0.9998591,0.00014078665,9.366439e-08,6.6606415e-11,2.8693463e-09
149,0.9999802,1.3923304e-05,3.3675406e-08,5.848381e-06,1.5689805e-10
150,0.9997892,4.0560306e-05,2.9866293e-08,0.00017027155,3.7116756e-09
151,0.99988246,0.00011023341,2.5191031e-08,7.290519e-06,1.1859962e-10
152,0.9995401,0.00038565276,5.6869544e-06,6.735791e-05,1.2182097e-06
153,0.9986761,0.001052766,0.00016045096,0.000110302935,3.1290338e-07
154,0.9999783,2.1724998e-05,6.5298625e-15,2.7287526e-11,6.868731e-13
155,0.99967134,0.00032682158,7.476384e-10,1.7425748e-06,1.2229324e-07
156,0.99990785,9.141814e-05,1.6921534e-08,6.542718e-07,1.0203954e-08
157,0.99996424,3.42409e-05,1.3871851e-06,1.0916467e-07,5.86707e-13
158,0.98752254,0.01226545,7.317621e-05,0.00013612065,2.7390709e-06
159,0.99741346,0.00083541585,0.00025709954,0.0014937911,2.5035789e-07
160,0.9999995,4.3482652e-07,1.7287442e-11,5.7766607e-11,4.9090743e-14
161,0.9996927,0.0003036634,7.2024406e-08,3.648798e-06,1.129744e-09
162,0.9996973,0.00024805113,3.5030376e-07,5.435254e-05,6.352273e-11
163,0.9999976,7.2588186e-08,5.8595134e-10,2.2371544e-06,7.3811584e-13
164,0.99988556,0.00010788433,1.3659078e-07,6.4486903e-06,2.622543e-10
165,0.9901676,9.297258e-05,1.2347036e-05,0.009726713,3.223392e-07
166,0.99310017,0.0027246454,6.504104e-06,0.004150137,1.8524195e-05
167,1.0,2.4240336e-08,5.297624e-13,2.8941146e-15,3.9634986e-14
168,0.99999845,1.467062e-06,1.874817e-09,1.7626509e-07,1.1808096e-09
169,0.9999728,2.5157166e-05,5.2218233e-08,2.027301e-06,1.2826672e-10
170,0.99915206,0.000832527,4.2456076e-08,1.4867038e-05,5.1660123e-07
171,0.9995177,0.0004450062,9.655277e-06,2.6535825e-05,1.0889402e-06
172,0.93869716,0.050693925,0.009681833,8.570375e-05,0.0008413499
173,0.99999094,7.2560774e-06,1.9791772e-10,1.7577603e-06,1.1753545e-08
174,0.99999964,1.6187975e-07,9.572425e-10,2.2150111e-07,1.9397901e-12
175,0.9999988,4.864681e-08,9.690423e-11,1.1560087e-06,6.01246e-14
176,0.99962544,0.00033673114,2.6130667e-06,3.5157882e-05,5.3382e-10
177,0.901698,0.098300725,9.432271e-07,3.5879617e-07,2.4881434e-08
178,0.9999999,6.2297595e-08,1.6002669e-12,6.5384703e-10,8.1334204e-15
179,1.0,1.3589455e-08,2.1481592e-13,2.2649885e-15,4.7662036e-15
180,0.954222,0.0002533323,4.0655963e-05,0.045476604,7.414961e-06
181,0.99998593,5.3747016e-07,5.7526163e-06,7.690961e-06,1.6464917e-08
182,0.9999856,1.1843301e-05,2.1026029e-08,2.6524117e-06,4.755119e-12
183,0.9498428,0.042940322,0.0063395747,0.0008477392,2.960662e-05
184,0.9999572,4.2607862e-05,1.4291868e-07,1.0752683e-07,3.7862253e-13
185,0.9999999,6.603032e-08,3.1532422e-12,8.07575e-10,3.610011e-14
186,0.99912053,6.261555e-05,3.2212825e-05,0.0007846491,1.0974226e-10
187,0.9999896,1.0426859e-05,3.2278866e-09,3.9419906e-08,7.833906e-15
188,0.9999312,6.869497e-05,1.2045882e-08,1.2350024e-07,2.4252144e-14
189,0.9999659,2.348742e-06,3.112553e-05,5.86571e-07,2.2830319e-08
190,0.9994186,0.0004659495,1.142914e-06,0.00011425675,5.232262e-09
191,0.9998241,0.00015018183,9.818306e-06,1.5872525e-05,3.472483e-09
192,0.9999502,4.979315e-05,2.1211932e-09,1.3504262e-08,3.9522406e-11
193,0.998936,0.0010497415,2.3011144e-06,1.2032901e-05,5.2996363e-08
194,0.9973928,0.00024079297,0.00012467802,0.0022416417,1.4269783e-07
195,0.99992836,6.816629e-05,1.3542483e-07,3.3017952e-06,4.0092037e-11
196,0.9999784,1.06508405e-05,2.5608646e-08,1.0980074e-05,1.0099837e-09
197,0.99997354,2.6471855e-05,7.1124906e-09,1.8255808e-08,1.8760705e-11
198,0.9445856,0.055408303,1.0566291e-06,4.900363e-06,7.513822e-08
199,0.99996233,3.6416415e-05,1.2347955e-06,1.90383e-08,3.2598848e-09
200,0.9992372,0.0004160951,9.721197e-06,0.00032687164,1.0167451e-05
201,0.9999664,2.762116e-05,5.519587e-06,3.132267e-07,8.788393e-08
202,0.99996877,3.088263e-05,1.0864041e-08,3.8349552e-07,2.1690846e-10
203,0.99999714,3.421624e-07,1.2667634e-06,1.1906237e-06,1.3394222e-09
204,0.9999988,1.715336e-07,1.0047572e-06,1.5257292e-08,1.5510148e-09
205,0.9999298,6.0449347e-05,9.642581e-06,1.8740609e-07,2.8272643e-10
206,0.995388,0.0045521287,3.0208648e-05,2.9567911e-05,6.0464494e-08
207,0.997934,0.0019779764,6.180572e-07,8.743085e-05,1.2827538e-08
208,0.9999999,6.268222e-08,8.0807076e-11,1.8113962e-13,2.1293694e-13
209,0.99999154,8.492318e-06,2.2511713e-14,8.4755847e-10,1.0973531e-10
210,0.98845637,0.010568968,0.00048320752,0.00049054803,8.9185437e-07
211,0.9964228,7.4273426e-06,3.9965477e-07,0.0035692204,3.983475e-08
212,0.9991208,0.00087916834,5.901639e-11,8.291587e-08,1.8397979e-10
213,0.9994143,0.0005655213,4.76736e-06,1.5338737e-05,2.8792911e-08
214,0.99935585,0.0005409338,2.0340818e-05,7.081602e-05,1.1981494e-05
215,0.9999844,1.5521646e-05,2.5572874e-08,5.0686033e-08,2.3320786e-14
216,0.99999976,2.7436465e-07,9.53166e-12,8.8626315e-09,1.292233e-12
217,0.9999385,5.988309e-05,5.6979356e-08,1.5641854e-06,7.368965e-12
218,0.9999671,3.273946e-05,7.374752e-10,8.9888e-08,9.073436e-10
219,0.9998536,4.080908e-05,5.9200247e-06,9.973678e-05,3.1408162e-10
220,0.9954105,4.196319e-05,2.6023488e-06,0.004544678,1.9236512e-07
221,0.9973149,7.4492923e-06,2.5929762e-07,4.5653884e-08,0.0026773068
222,0.9999584,4.1538187e-05,6.6985166e-08,2.6802638e-10,8.26695e-10
223,0.9999976,2.345403e-06,9.506281e-11,9.876243e-11,4.993017e-13
224,0.99999964,4.0148547e-07,4.676263e-11,2.3299691e-08,2.6914475e-12
225,0.99999225,7.800802e-06,6.849478e-09,9.035191e-09,3.906045e-12
226,0.9997009,0.0002848681,9.262025e-06,5.0527237e-06,3.9798522e-08
227,0.9984988,0.0012463244,5.559827e-06,0.0002483897,9.2758216e-07
228,0.99026287,0.009372938,6.1540195e-05,0.00029246174,1.0168848e-05
229,0.99958676,0.0004084393,8.990249e-08,4.652037e-06,2.7109622e-11
230,0.9999989,1.0541432e-06,2.322858e-09,2.672591e-11,1.9038025e-11
231,0.9990295,0.0009630248,2.719807e-07,7.2001008e-06,1.8695336e-10
232,0.9999261,7.1657e-05,1.3699456e-06,9.389198e-07,6.584972e-09
233,0.999899,3.24121e-05,1.7251594e-06,6.684677e-05,1.0017848e-08
234,0.997255,0.0027187783,2.7247302e-06,2.3488587e-05,1.3221599e-10
235,0.99945,0.00023308376,0.00031119902,3.4834958e-08,5.699613e-06
236,0.99998784,1.1630672e-05,6.676865e-11,4.2242718e-07,1.0432095e-08
237,0.9534141,0.046256207,5.6397635e-05,0.00027067796,2.6076211e-06
238,0.9999418,5.5675526e-05,1.0787269e-08,2.4882718e-06,6.161063e-12
239,0.9960114,0.003076709,2.2594239e-05,0.00088885723,4.536311e-07
240,0.99967825,0.00031368688,7.933739e-06,1.2687065e-07,2.4037924e-10
241,0.9999999,1.1532598e-07,8.9854545e-13,4.368847e-14,4.0876838e-14
242,0.9997508,3.38335e-05,6.3745256e-06,0.00020904245,8.398407e-09
243,0.9995726,0.00042281495,5.095636e-07,4.0785485e-06,2.6601638e-11
244,0.9999118,8.59884e-05,2.0136078e-07,2.1108497e-06,9.0552094e-11
245,0.99994373,5.3895703e-05,1.8385094e-06,6.0308366e-07,9.3509554e-11
246,0.99997485,5.281956e-08,8.866759e-12,2.5149371e-05,2.0788217e-12
247,0.9999677,3.1527703e-05,4.1519317e-09,8.8666843e-07,2.809047e-10
248,0.9778711,2.9269675e-05,4.0246323e-06,0.022095134,4.6997718e-07
249,0.99999976,2.0594635e-07,4.1877596e-13,8.33962e-14,2.0878996e-14
250,0.9999242,5.3291762e-05,1.2661843e-08,2.2361039e-05,7.047165e-08
251,0.9998796,0.00011638817,3.5829173e-09,3.908035e-06,1.2499976e-07
252,0.9967691,0.00080362486,0.0020460156,0.0001331101,0.00024816665
253,0.999508,0.0004894676,4.1055333e-07,2.1420788e-06,4.510297e-11
254,0.99768496,0.0013126063,0.000472751,0.00052896544,7.2177363e-07
255,0.9996314,0.00036691604,4.3795566e-07,1.2396719e-06,4.36725e-12
256,0.9993666,0.00061469147,2.3236648e-06,1.6404369e-05,6.397279e-11
257,0.99982774,4.3853874e-05,0.0001282474,5.2178997e-08,8.791265e-08
258,0.9872372,9.448083e-05,3.4562374e-05,5.23079e-07,0.012633183
259,1.0,4.372554e-08,2.0653967e-12,2.554703e-13,5.2605066e-14
260,0.99999154,7.0925053e-06,6.7377925e-09,1.4758716e-06,4.3043104e-11
261,0.9999981,1.7928025e-06,6.267714e-10,7.175636e-08,7.8907714e-13
262,0.99999034,8.660612e-06,9.731702e-07,5.7847394e-09,1.1357108e-10
263,0.9954497,0.0018647041,0.0026528935,8.360455e-06,2.4333387e-05
264,0.9999479,5.138579e-05,7.6967e-08,6.6753324e-07,1.7392466e-09
265,0.99975675,0.00022626866,1.5558545e-08,1.6552409e-05,3.5954835e-07
266,0.9979327,0.0020671757,5.501129e-09,7.317763e-08,6.0451594e-10
267,0.9992619,0.0007343762,1.3868275e-07,3.6111962e-06,2.2837765e-11
268,0.99957746,0.0004014278,1.6977547e-05,4.169165e-06,2.7456922e-08
269,0.9997938,0.000193039,8.75806e-07,1.2280179e-05,7.8361394e-11
270,0.9999988,8.856202e-07,1.4498034e-08,3.4500184e-07,2.453932e-09
271,0.9725284,6.929101e-05,4.9596406e-06,0.027396316,9.618315e-07
272,0.9994609,0.00053342077,2.1449448e-07,5.543314e-06,3.1367756e-10
273,0.9999492,5.043346e-05,2.953912e-08,2.8346508e-07,1.0387104e-11
274,0.98148876,4.5365636e-05,2.6868704e-06,0.018462624,4.7314762e-07
275,0.99990964,8.939408e-05,7.740748e-08,8.608627e-07,1.1095523e-09
276,0.995845,0.0040528444,6.06793e-06,9.6024625e-05,1.757166e-10
277,0.99996996,2.5363617e-05,6.5646724e-08,4.6373884e-06,6.8509026e-10
278,0.99982303,0.00015514503,1.0224739e-05,1.1564963e-05,3.7306958e-09
279,0.9994281,0.0005614488,9.251641e-06,1.2327442e-06,2.6801303e-10
280,0.9998011,0.00019882183,1.2695516e-08,1.13158215e-07,6.273463e-10
281,0.9994791,0.00051928667,2.1504279e-07,1.4500301e-06,1.7576269e-11
282,0.9999528,2.4237195e-05,5.1778226e-08,2.2936287e-05,5.902379e-10
283,0.9997197,8.0662205e-05,1.7079983e-06,8.237346e-05,0.0001154317
284,0.9996563,0.00034095993,2.0313139e-07,2.560372e-06,9.952736e-11
285,0.99995637,4.3530563e-05,5.4259887e-12,6.009701e-08,5.7978196e-09
286,1.0,2.913382e-08,2.2550751e-14,1.1989919e-10,1.5457551e-15
287,0.30311033,0.001750794,0.635298,0.05345007,0.0063907737
288,0.9999949,3.948204e-06,7.867138e-09,1.2064069e-06,1.3417626e-11
289,0.99988616,0.00011273714,2.4426545e-09,1.0924159e-06,5.5537295e-09
290,0.9988036,0.00044374273,0.00046102356,0.00029126345,3.1503222e-07
291,0.997981,0.0017445269,1.4045821e-05,0.000260448,5.1159943e-09
292,0.9993741,0.000624665,1.0135407e-08,1.3072472e-06,2.8117537e-09
293,0.9940029,1.804331e-05,2.151707e-06,0.00597684,8.621862e-08
294,0.99867105,0.0013288332,1.09534355e-07,4.1380133e-10,2.4983322e-09
295,0.99322426,0.00014917014,0.006096613,0.000524645,5.368924e-06
296,0.9999863,5.8697333e-06,7.774391e-06,7.2669096e-08,1.2323521e-08
297,0.99999726,2.7026094e-06,9.749981e-10,1.0662831e-09,3.3846368e-12
298,0.9999964,3.5095252e-06,1.0762851e-07,6.8910198e-09,8.5502844e-10
299,0.99994516,5.0088285e-05,3.6089368e-06,1.160077e-06,1.20425865e-11
300,0.9999703,1.5922713e-05,1.5735939e-08,1.3679206e-05,7.9246504e-10
301,0.9930529,0.0031559514,0.002822424,0.0008213914,0.00014737422
302,0.9956591,0.004275504,4.9763344e-06,5.6219764e-05,4.189518e-06
303,0.99999726,2.7647009e-06,2.7729627e-10,5.68726e-08,2.689844e-09
304,0.9991191,0.0008492811,4.5873094e-07,3.112585e-05,2.6452499e-10
305,0.9981159,0.0018768668,4.6444916e-06,2.3032765e-06,4.1602533e-07
306,0.999678,0.00030621956,2.5569707e-07,1.548719e-05,4.55385e-10
307,0.9991067,0.00088830356,1.2058014e-07,4.8734632e-06,1.4800758e-10
308,0.99999976,2.3504226e-07,2.0853508e-12,3.99945e-13,1.2279124e-13
309,0.9955428,0.0006167842,0.0027294757,0.0010852518,2.56064e-05
310,0.99999535,2.4555802e-06,3.1036214e-07,1.7781506e-06,6.309483e-11
311,0.99997187,2.1100015e-05,3.9303213e-08,7.0366223e-06,2.1032298e-10
312,0.9994374,0.0005328881,8.323887e-07,2.8876613e-05,3.0102847e-09
313,0.9962909,0.003708671,2.2874606e-10,5.3393296e-07,2.2961475e-09
314,0.9999769,2.318016e-05,3.0474637e-10,2.3797702e-08,6.12206e-12
315,0.99795926,0.0020406272,1.1425389e-08,7.83687e-08,3.0275402e-10
316,0.9934772,0.0062507833,0.000112646696,0.00015736977,1.9286533e-06
317,0.99998486,1.1230886e-05,4.3246636e-08,3.909912e-06,7.5246406e-11
318,0.98402715,0.0011355283,0.013430362,0.0012941726,0.000112791284
319,0.9999976,4.651697e-07,6.4162697e-07,1.3129858e-06,6.750925e-10
320,0.99999666,1.9060667e-06,1.4857137e-06,1.2892079e-09,2.7612654e-10
321,0.9999864,8.945384e-06,1.1520268e-08,4.6879654e-06,3.15337e-11
322,0.9999813,1.2998076e-05,8.531848e-09,5.714402e-06,7.628508e-13
323,0.9998652,1.7380586e-05,1.6207025e-05,0.000101217316,3.4974476e-12
324,0.99999833,1.7094912e-06,1.3592218e-10,2.7841242e-08,1.2293927e-11
325,0.998553,0.0011859934,0.0002006021,6.0215418e-05,2.5053492e-07
326,0.9972657,0.0026844635,9.92167e-06,3.940658e-05,5.1717274e-07
327,0.9989988,0.0008633683,3.4198754e-06,0.00012700073,7.330278e-06
328,0.9999299,4.3958178e-05,2.185134e-05,3.9986126e-06,2.0059929e-07
329,0.91419566,6.897262e-05,1.5635449e-05,0.08571781,1.9274682e-06
330,0.9990527,0.0009148939,2.4685072e-05,7.6132565e-06,6.2553845e-08
331,0.9991456,0.00047337406,1.6644106e-05,0.00036439233,5.22036e-08
332,0.9999682,1.4828878e-05,2.308581e-06,1.47662495e-05,2.18216e-09
333,0.98455,0.015178631,9.192495e-06,0.00024154656,2.0632797e-05
334,0.9999219,7.57398e-05,4.780873e-07,1.8834032e-06,2.1609732e-09
335,0.9999968,1.6141797e-06,1.5055383e-06,1.0035165e-07,6.375598e-09
336,0.99934596,0.0006177364,1.4103252e-06,3.4892557e-05,1.7193397e-08
337,0.9998684,0.00013150908,1.2059999e-08,6.6416334e-08,8.020902e-10
338,0.99934167,0.0006582471,8.632659e-09,1.2019801e-07,1.0449299e-09
339,0.99596477,0.0026978627,9.4485265e-05,0.0012333576,9.52715e-06
340,0.99998593,1.14267705e-05,2.6376108e-06,8.822099e-09,1.602638e-10
341,0.9998988,9.888641e-05,4.3265456e-07,1.8176135e-06,8.513654e-09
342,1.0,3.2362873e-08,1.7461262e-15,1.0711561e-12,1.2453784e-17
343,0.99917823,0.00082172477,1.2333958e-09,1.494341e-08,6.869752e-11
344,0.9999938,6.2418476e-06,9.095168e-13,3.9954e-17,1.5799312e-12
345,0.06374786,6.15067e-05,0.9361495,4.396383e-06,3.6858168e-05
346,0.9998609,9.574663e-05,4.323037e-05,1.8765734e-07,1.9445551e-08
347,0.999605,0.0002787266,1.0533718e-05,0.00010574195,1.8710755e-09
348,0.9989753,0.0010192136,5.5796113e-07,4.9246783e-06,1.7228572e-08
349,0.9999974,1.2081806e-06,1.5594505e-07,1.2522635e-06,2.416204e-11
350,0.9997465,0.00023685524,1.2125223e-07,1.6615486e-05,5.2937685e-12
351,0.99976414,2.9839142e-05,0.00020473877,1.1706821e-06,1.1318836e-07
352,0.9934958,0.006200354,0.00023054834,7.320913e-05,3.4295624e-08
353,0.99489486,0.0050592306,2.5116653e-06,4.3357748e-05,3.8138257e-09
354,0.99950767,0.0002745176,8.734512e-05,0.00013047455,5.054904e-08
355,0.9997069,0.00028655017,3.5934588e-06,2.9248959e-06,4.091115e-08
356,0.9999887,1.1366546e-05,1.4298874e-11,1.9361208e-08,3.6778978e-08
357,0.9996246,2.7714475e-05,0.00034352607,3.5798305e-06,5.2490805e-07
358,0.9992317,0.00073503924,2.7083e-05,5.865119e-06,2.721883e-07
359,0.99917054,0.0008292108,9.678344e-09,2.3249724e-07,8.825499e-10
360,0.99999833,1.5961358e-06,1.877823e-09,6.370092e-08,3.858096e-12
361,0.9996177,0.0003182333,4.9873506e-06,5.6837333e-05,2.1332737e-06
362,0.99843985,0.0015550164,3.1864253e-08,1.0374954e-06,4.104e-06
363,0.99997234,2.762704e-05,6.7122585e-11,5.3028725e-14,8.276985e-11
364,0.99280095,0.007193098,2.9285918e-06,2.8632976e-06,5.97973e-08
365,0.99987817,0.00011992977,6.475407e-08,1.8151076e-06,2.1288903e-10
366,0.9930952,0.0067603667,1.3776837e-06,0.00014308168,9.529285e-09
367,0.9905939,0.0075375536,0.00013121309,0.001737329,1.0574402e-08
368,0.99984133,0.00015815404,8.2938996e-11,4.3668868e-07,7.998621e-11
369,0.9999366,2.208388e-05,1.7477703e-07,4.1226576e-05,2.5759386e-08
370,0.9999989,1.0429904e-06,7.5663137e-10,1.4506188e-09,7.220904e-13
371,0.9999956,4.4463e-06,2.2376159e-09,3.4566906e-08,1.2498723e-14
372,0.9960102,0.002431875,0.00032091435,0.001230681,6.255061e-06
373,0.9999716,2.7769609e-05,4.8223676e-08,5.0108764e-07,4.8452808e-11
374,0.9999995,4.3412666e-07,8.063299e-13,3.341017e-08,4.2596837e-16
375,0.99950385,0.00032536816,0.00014822198,1.7162489e-05,5.378378e-06
376,0.9999814,1.747967e-05,1.8586356e-08,1.0638036e-06,1.1291417e-09
377,0.9999279,4.998802e-05,3.059179e-07,2.1877026e-05,1.0659482e-10
378,0.99857485,0.001423484,3.5301755e-07,1.2893624e-06,5.8804277e-12
379,0.9999882,1.1835676e-05,1.8712406e-08,1.4171629e-08,5.79148e-10
380,0.9999584,3.5169323e-05,9.959386e-08,6.37047e-06,1.5736411e-08
381,0.9999796,1.8774299e-05,3.1295894e-08,1.6096218e-06,2.031039e-09
382,0.9999652,3.1975287e-05,1.12525615e-08,2.7913272e-06,8.288691e-12
383,0.9999677,2.3962992e-05,6.9065464e-09,8.348681e-06,1.1812772e-10
384,0.26614636,0.733844,7.92255e-06,7.582065e-09,1.7401643e-06
385,0.9984817,0.001425295,6.065252e-05,3.2464894e-05,7.5334405e-09
386,0.9997031,0.00026863426,2.3216353e-05,5.026144e-06,3.845115e-09
387,0.9999175,2.2057255e-05,6.9754304e-07,5.969743e-05,3.898399e-09
388,0.9808412,0.009330697,0.009237404,0.00027032863,0.00032034027
389,0.9999871,1.2906744e-05,2.9713307e-09,2.0085224e-08,9.0206204e-11
390,0.9999919,1.6698642e-06,9.281345e-10,6.4403594e-06,1.6402127e-09
391,0.99997854,2.0060139e-05,9.421092e-09,1.4198835e-06,9.4116e-11
392,0.9884421,0.0081557715,0.0001691687,9.4394454e-05,0.0031384926
393,0.9999995,5.279103e-07,2.5811133e-11,1.2917401e-08,6.222165e-13
394,0.99999416,5.8249225e-06,1.6609032e-09,6.8132295e-09,8.896259e-11
395,0.9998652,8.0364945e-05,5.2957388e-05,9.360518e-07,6.151518e-07
396,0.99998975,1.8971346e-06,7.311208e-06,8.235627e-07,2.2236141e-07
397,0.9999567,4.0111925e-05,3.1119291e-06,1.0964274e-07,4.5179327e-09
398,0.99997485,2.226539e-05,1.6116985e-08,2.833941e-06,4.398042e-10
399,0.9999651,2.8728641e-06,2.4076388e-07,3.179593e-05,5.2116307e-09
400,0.99999905,1.0123657e-06,7.1698175e-11,1.5935608e-13,6.342451e-13
401,0.9946891,6.977333e-05,3.4755521e-06,0.005236961,7.469917e-07
402,0.99990714,9.170545e-05,3.59131e-08,1.09997e-06,9.814337e-12
403,0.9999467,5.0937826e-05,2.3254308e-06,1.8148492e-08,1.5056572e-11
404,0.99999404,2.1265923e-06,1.4478968e-06,2.3111586e-06,5.102587e-10
405,0.9999509,3.0254021e-05,1.7090983e-05,1.7631007e-06,1.5486977e-08
406,0.99996376,3.3218974e-05,3.72714e-08,2.8883487e-06,7.323577e-14
407,0.9999999,1.0092398e-07,7.685513e-11,3.641488e-08,1.939898e-12
408,0.9993563,0.00059920526,2.453253e-06,4.200701e-05,2.8123006e-08
409,0.9996619,0.00033624715,6.8623614e-11,1.8014291e-06,3.2447559e-10
410,0.9999999,1.0765804e-07,5.1120033e-12,1.3528904e-09,5.9491786e-14
411,0.99987566,0.00012216547,2.8821466e-07,1.8787506e-06,3.309102e-13
412,0.9999579,3.992413e-05,1.2812325e-06,8.172531e-07,4.6049046e-12
413,0.9999702,6.8833097e-06,1.7775152e-05,4.9392775e-06,1.3842904e-07
414,0.9999076,7.940931e-05,1.0629215e-05,2.080396e-06,2.1009849e-07
415,0.9998149,0.00017436015,4.6894506e-06,5.972242e-06,7.610996e-08
416,0.99999547,1.7601964e-07,2.2463006e-07,4.15424e-06,1.7670357e-10
417,0.999946,5.3195126e-05,7.2270603e-07,1.2814229e-07,5.133267e-10
418,0.9999976,2.4387984e-06,5.0296402e-11,7.5983476e-11,3.844734e-14
419,0.99997246,2.515665e-05,3.098888e-08,2.32117e-06,7.747603e-11
420,0.999998,1.6781777e-06,2.9137692e-09,3.069192e-07,2.1300768e-09
421,0.9993519,5.268944e-06,3.990887e-09,0.0006428919,5.9818857e-09
422,0.99941087,0.000337784,2.123214e-05,0.00023008192,5.964468e-08
423,0.9999981,5.932905e-07,1.6898784e-07,1.0940929e-06,1.09660704e-10
424,0.99984837,0.00014931377,2.0176637e-06,2.872352e-07,7.975799e-10
425,0.99990857,1.2280541e-06,8.0953924e-08,9.009373e-05,1.3084347e-11
426,0.99997735,2.2260287e-05,3.223648e-07,9.050316e-10,2.128675e-10
427,0.9999888,1.1149378e-05,1.4777435e-08,1.562789e-08,2.3464425e-10
428,0.97913194,0.019575803,0.0012079853,7.90007e-05,5.2059227e-06
429,0.999742,5.0974286e-05,0.00020609808,5.1664307e-07,3.945973e-07
430,0.999954,4.4955843e-05,6.557609e-08,1.019224e-06,4.5618195e-10
431,0.99144965,7.9954734e-05,8.548317e-06,0.008461204,7.599337e-07
432,0.99998605,1.2083957e-05,1.6246283e-10,1.7444287e-06,1.3988989e-07
433,0.9999726,2.7258662e-05,1.3471345e-07,2.25403e-09,3.7687306e-10
434,0.9999894,9.9821655e-06,6.249229e-10,6.2674303e-07,4.490519e-13
435,0.9998615,0.00013422538,5.014292e-07,3.8049482e-06,1.2091111e-10
436,0.99960226,0.00036605427,4.7808282e-08,3.138382e-05,2.681849e-07
437,0.9999838,1.34279135e-05,2.1879903e-10,2.7476337e-06,1.1269353e-08
438,0.9996911,6.741733e-05,6.317132e-08,0.00024100102,3.971232e-07
439,0.9999471,5.117097e-05,1.0534468e-07,1.681745e-06,8.986035e-11
440,0.9998876,0.00011188878,1.4923013e-09,2.1665674e-07,2.9387022e-07
441,0.99985397,1.7623846e-05,6.5931285e-06,0.00012180765,2.1997305e-11
442,0.9964767,0.00069837616,0.00041407536,0.00033194703,0.002078953
443,0.9998956,4.938275e-05,9.170355e-06,4.5935416e-05,4.828623e-10
444,0.99999726,1.5914679e-06,2.7788119e-11,1.192259e-06,6.249835e-11
445,0.99999356,5.4475277e-06,1.3226499e-08,9.3654705e-07,5.5253494e-14
446,0.999995,4.9594887e-06,9.801944e-14,1.1297581e-09,6.464312e-13
447,0.9999958,4.055931e-06,4.9154685e-09,8.867978e-08,7.821562e-15
448,0.99968374,0.0002986272,5.103681e-06,1.2493e-05,5.089675e-09
449,0.99998474,1.4911021e-05,1.0397023e-08,3.4638424e-07,1.4952421e-12
450,0.99072754,0.005703296,0.0024911636,0.001070983,7.1160603e-06
451,0.99998975,9.918655e-06,2.6775746e-07,4.486397e-08,2.9967283e-13
452,0.99997735,2.2486798e-05,5.458008e-09,7.822759e-08,2.695997e-15
453,1.0,4.2327656e-08,9.254303e-14,5.7024774e-10,9.89772e-16
454,0.9999819,1.4457964e-05,6.890134e-08,3.613874e-06,2.5501732e-09
455,0.99996316,7.2202306e-06,2.7555778e-08,2.95023e-05,6.3044947e-10
456,0.99781775,0.0019865825,4.202081e-05,0.00015364197,2.3431497e-09
457,0.9999715,2.6384041e-05,1.7667796e-08,2.119719e-06,6.173762e-12
458,0.9999999,1.6146258e-07,7.765502e-13,5.703988e-14,4.2163647e-13
459,0.9999305,6.236624e-05,8.361302e-08,7.071784e-06,1.3285599e-10
460,0.99998987,2.7693459e-06,4.86089e-08,7.347444e-06,7.6634976e-10
461,0.9999715,2.4686718e-05,1.288982e-08,3.770956e-06,4.7942227e-11
462,0.99991953,3.6720594e-05,4.2992506e-05,1.3673724e-07,5.62944e-07
463,0.99999523,4.6877517e-06,1.2650955e-09,8.82079e-08,1.537593e-12
464,0.9999976,2.0568827e-06,2.3254392e-09,3.2649095e-07,1.4826766e-13
465,0.9999571,4.1528507e-05,4.337362e-09,1.4410355e-06,1.0952488e-11
466,0.99942744,0.00034943555,0.00019856868,2.4497016e-05,1.5529031e-07
467,0.99975973,0.00023528647,8.67959e-08,4.9497608e-06,1.7945248e-10
468,0.9983285,0.00038162485,0.00012663455,0.0011630546,6.276237e-08
469,0.9995455,0.00018730793,5.864693e-05,0.00020681949,1.6855275e-06
470,0.9994753,0.0005109076,2.5615957e-06,1.1126565e-05,6.252172e-08
471,0.99998236,4.373215e-06,8.315303e-06,4.9638215e-06,1.5425223e-09
472,0.99998605,1.39402855e-05,3.24548e-10,8.468351e-09,2.0328571e-10
473,0.9930433,0.003732107,9.787453e-07,0.002935713,0.00028794046
474,0.9997613,0.00020693438,5.303491e-07,3.1277148e-05,2.1574016e-09
475,0.9227713,0.07722353,3.999152e-06,1.0222467e-06,1.6150355e-07
476,0.99999726,9.7771604e-08,3.5776262e-07,2.2254455e-06,4.881157e-10
477,0.9999999,6.991479e-08,1.2237593e-14,1.1588759e-09,4.316116e-16
478,0.99998903,1.0727062e-05,5.5474723e-09,1.8355468e-07,1.0632076e-09
479,0.99999714,2.662407e-06,2.056706e-09,2.4936347e-07,3.8778566e-08
480,0.99998593,1.4073114e-05,1.3889733e-15,2.1817001e-12,1.05595295e-13
481,0.9998964,0.00010099244,2.538574e-06,3.8283176e-08,9.908852e-10
482,0.9913844,2.472759e-05,1.6875774e-06,0.008588974,1.9185732e-07
483,0.9999536,1.8594663e-05,2.2312573e-05,5.3846993e-06,6.1221975e-08
484,0.99996054,3.7513324e-05,6.3177616e-08,1.9005704e-06,4.453931e-10
485,0.99598616,0.0021696074,0.001662415,2.8966027e-05,0.00015279341
486,0.9930755,0.006785724,2.8284283e-06,0.00013597337,4.358897e-08
487,0.96253854,0.00038956178,4.0496467e-05,0.037016746,1.4657634e-05
488,0.9998746,0.0001185701,5.4183383e-06,1.3259188e-06,3.1407176e-08
489,0.9979961,0.0020018367,2.477405e-08,2.1230642e-06,8.477315e-09
490,0.99505746,0.0048798244,1.2666228e-06,6.149764e-05,2.6869553e-09
491,0.9991702,0.00082984293,3.3769374e-09,4.8279325e-08,9.8408726e-11
492,0.99964094,0.0003301517,1.45124795e-05,1.4313028e-05,3.1285936e-09
493,0.99999976,2.359613e-07,1.8253812e-12,2.197495e-09,1.112632e-13
494,0.9999931,5.3308822e-06,5.0654415e-07,1.0233098e-06,3.4909516e-11
495,0.9999535,4.6491466e-05,2.133089e-08,7.651188e-09,5.357177e-12
496,0.9996332,0.00033179895,1.1317787e-05,2.372983e-05,4.2970907e-08
497,0.9996214,0.00030358907,1.0057017e-06,7.392222e-05,7.1765016e-09
498,0.999979,1.9850886e-05,3.782153e-08,9.91863e-07,1.8477885e-10
499,0.9585688,0.039138738,0.00028431017,0.0020019533,6.2267404e-06
500,0.9994211,0.00056141114,2.0457462e-06,1.5443156e-05,3.4440536e-08
501,0.999992,7.988e-06,6.388899e-12,8.701441e-10,1.7265876e-13
502,0.99996984,2.129641e-05,1.7580032e-08,8.749062e-06,4.875524e-10
503,0.99985397,0.00012789058,8.7371706e-07,1.7267072e-05,1.7316475e-11
504,0.9999987,1.2239402e-06,1.972775e-09,6.439556e-08,6.4835837e-10
505,0.9994541,0.00028984685,0.0002343297,1.7497283e-05,4.1856806e-06
506,0.9999944,2.4799333e-06,5.580738e-10,3.1401298e-06,9.61236e-12
507,0.99999964,3.0516094e-07,1.2957242e-10,1.1069499e-14,3.2460923e-11
508,0.9997391,0.00025559924,1.6935373e-06,3.595988e-06,8.350773e-09
509,0.9999013,9.790215e-05,1.438826e-07,6.5110424e-07,4.3993354e-11
510,0.9997055,0.0002871445,3.2187725e-07,7.126304e-06,2.7385273e-12
511,0.9999907,8.7869885e-06,1.0611267e-09,4.6292325e-07,1.2739551e-12
512,0.99929583,0.00067839667,1.9642071e-05,3.1711036e-06,2.8013087e-06
513,0.99930453,0.0006950784,1.8449932e-10,3.773654e-07,9.8467026e-11
514,0.99999976,1.0277858e-07,7.7009045e-11,6.776348e-08,1.8106085e-13
515,1.0,5.3892077e-08,2.9382472e-13,1.4317306e-13,4.588862e-15
516,0.9999695,3.0329435e-05,2.0889452e-07,8.4891745e-08,1.0445931e-10
517,0.9993012,0.0004221515,0.00022674326,4.9795868e-05,6.626102e-08
518,0.99992454,4.989141e-05,2.4506586e-05,9.154988e-08,9.5117997e-07
519,0.9999716,1.0184885e-05,2.5402376e-06,1.5700443e-05,8.138575e-11
520,0.99965155,0.0003056175,1.7523367e-07,4.210707e-05,4.636126e-07
521,0.99999726,1.926749e-06,3.1290193e-11,8.54349e-07,5.0815214e-09
522,0.99970406,0.00028266347,9.769552e-06,3.421784e-06,8.601547e-09
523,0.9998561,0.0001418455,1.2379361e-06,8.0168627e-07,2.672565e-12
524,0.993956,0.004034619,4.113549e-05,0.0019657114,2.4552055e-06
525,0.9999994,5.567697e-07,4.50149e-09,9.282012e-11,1.8802853e-11
526,0.999458,0.00052537146,2.3479667e-07,1.6335645e-05,9.547826e-10
527,0.99584156,0.004142865,8.763755e-07,1.4616975e-05,4.313017e-08
528,0.9978987,0.0016995107,0.00021928859,0.00018223595,2.1277042e-07
529,0.9998115,0.00018737114,1.0723769e-08,1.2193601e-06,4.2576307e-09
530,0.9998709,0.0001234525,1.0160295e-07,5.455583e-06,3.8434483e-10
531,0.999607,0.00039305497,4.2441535e-09,4.985408e-12,3.358732e-10
532,0.99997115,2.8810866e-05,1.7096196e-13,3.2565142e-09,2.2246116e-09
533,0.9999993,7.10164e-07,1.2595227e-12,9.183178e-09,9.542829e-15
534,0.9999726,2.7435824e-05,1.7543634e-08,4.2006878e-08,1.3428395e-10
535,0.99019885,0.00979063,2.4449557e-07,1.0281065e-05,1.8362279e-08
536,0.99881184,0.0011552722,2.468616e-05,8.211931e-06,2.0128885e-08
537,0.99910694,0.0008845364,2.2450476e-07,8.238757e-06,7.693127e-09
538,0.99933666,0.0001825466,0.0004450052,1.817374e-05,1.7577508e-05
539,0.999204,0.00079433835,4.967402e-07,1.2105238e-06,4.3511618e-11
540,0.99991107,8.8823304e-05,7.5981944e-08,7.317234e-09,2.8358252e-10
541,0.9999614,3.8664573e-05,7.513883e-10,7.7454814e-14,2.3341745e-10
542,0.9999999,1.3788016e-07,1.127765e-10,3.0932295e-14,3.0029282e-12
543,0.9999994,6.1854837e-07,1.6331402e-11,2.5166843e-08,2.4058445e-14
544,0.9996762,0.0003237326,1.7261118e-09,2.7898176e-12,1.07125774e-10
545,0.99840707,0.0015924877,7.885674e-09,4.552459e-07,5.251376e-10
546,0.99999607,3.9539136e-06,5.901344e-16,3.6760783e-13,6.362551e-15
547,0.9998964,9.711904e-05,2.1973541e-07,6.180139e-06,3.894457e-10
548,0.9999906,1.9653974e-06,4.716112e-09,7.532248e-06,9.61656e-12
549,0.9999409,5.91048e-05,2.6825642e-14,3.84479e-09,6.3677457e-12
550,0.9999976,2.3914545e-06,2.43298e-13,7.095636e-11,1.6157069e-14
551,0.9997906,0.00020742234,1.501927e-06,5.2378e-07,8.747446e-09
552,0.9997384,5.712483e-05,0.00019353097,1.0971681e-05,6.1955413e-10
553,0.99999523,2.3161724e-06,6.177054e-08,2.3868988e-06,1.8595017e-12
554,0.99996364,3.528713e-05,2.8836444e-08,1.0134271e-06,2.8232239e-12
555,0.99987304,0.00012379288,9.4132747e-07,2.133066e-06,2.2866622e-09
556,0.9999962,1.0465994e-06,2.7914535e-10,2.741522e-06,1.2708478e-09
557,0.9998827,4.2891614e-05,3.2544758e-05,3.3831962e-05,8.034861e-06
558,0.99972206,0.00025453483,7.5272135e-07,2.2548802e-05,6.039043e-10
559,0.99965835,0.00033455962,2.2248557e-07,6.8906656e-06,5.6250612e-11
560,0.99881834,0.0011815587,2.458766e-09,1.2887074e-07,4.67436e-10
561,0.99995434,4.4971603e-05,3.097784e-09,7.0871266e-07,1.7453042e-11
562,1.0,3.7909203e-08,2.2335385e-11,1.30962585e-14,3.166138e-13
563,0.99998367,1.3233455e-05,2.2897252e-06,7.100994e-07,1.4336544e-07
564,0.99999166,3.1752852e-06,4.7482285e-10,5.089629e-06,3.7842607e-10
565,0.99999917,8.1835844e-07,1.9446727e-11,1.484914e-14,1.6660774e-12
566,0.9998574,0.00014037458,8.2000284e-08,2.0895232e-06,3.423688e-09
567,0.99997985,2.0071342e-05,3.8002696e-12,9.137856e-08,2.662437e-10
568,0.9998784,0.00010833989,1.43799666e-08,1.3163919e-05,4.5968496e-09
569,0.9991406,0.0008371092,4.16216e-06,1.5665568e-05,2.5438796e-06
570,0.9999591,2.8110853e-05,7.577584e-09,1.2706264e-05,3.4018188e-09
571,0.99999154,8.438267e-06,2.6968474e-08,1.5687954e-09,5.2416483e-12
572,0.9994791,0.00051738776,1.5340711e-07,3.4421748e-06,3.508082e-11
573,0.9836909,2.3199289e-05,3.018545e-06,0.01628248,3.353219e-07
574,0.9994766,0.0005233979,1.78732e-09,4.9301157e-08,7.454005e-12
575,0.9967104,0.0032035904,6.224757e-05,2.3619732e-05,7.479341e-08
576,0.9995888,0.0003961865,4.7481876e-07,1.45710765e-05,1.0093507e-10
577,0.99972016,5.20962e-05,8.831779e-08,0.00022760847,6.585902e-09
578,0.9999263,6.566043e-05,2.2543365e-07,5.4688094e-06,2.2551976e-06
579,0.9999702,1.2528154e-05,8.265826e-08,1.725454e-05,1.0653027e-09
580,0.9998596,1.4920277e-05,1.4301463e-05,0.00011122032,1.2152699e-11
581,0.9956346,0.0034126006,3.4925102e-05,0.0009179036,8.6587555e-09
582,0.99964,0.00020741702,8.299342e-05,6.864759e-05,8.3015277e-07
583,0.999749,0.00024903656,7.1635293e-07,1.1457477e-06,2.1216233e-10
584,0.9999877,1.1122582e-05,4.1435663e-07,7.8685076e-07,6.359084e-09
585,0.9999988,5.7457794e-07,1.8875949e-07,3.6534868e-07,7.759431e-11
586,0.9962645,0.0031360064,0.0003124893,0.00028580212,1.1461291e-06
587,0.9999325,3.0675765e-06,6.433989e-05,7.756473e-08,5.099263e-08
588,0.99624723,0.0037208972,2.7541162e-07,3.140378e-05,1.6837919e-07
589,0.99991965,6.4169995e-05,2.8167266e-08,1.613839e-05,5.0439652e-11
590,0.99998903,5.317223e-06,1.9802242e-09,5.6215404e-06,3.035155e-11
591,0.9935823,2.388751e-05,2.2126776e-06,0.0063913646,1.7734294e-07
592,0.99998987,6.6970033e-06,4.5653568e-08,3.4354737e-06,1.584253e-11
593,0.9999509,4.9160728e-05,5.247202e-10,7.8106196e-13,6.102586e-11
594,0.99997413,1.265915e-05,1.072865e-07,1.308351e-05,8.0398554e-10
595,0.9997298,0.00017189182,5.3995544e-05,4.3772612e-05,5.909711e-07
596,0.99999654,2.1618723e-07,8.72947e-11,3.2564992e-06,2.8851985e-11
597,0.9999957,3.153711e-06,5.6074363e-08,1.1057399e-06,4.455959e-09
598,0.9999999,1.1341367e-07,4.903967e-10,2.8773686e-09,3.0662421e-15
599,0.9969381,0.0004002699,4.2761076e-06,0.0026569513,3.3067894e-07
600,0.99994004,5.5479315e-05,7.293285e-07,3.7424418e-06,8.791965e-12
601,0.99991345,2.8206567e-05,5.6300667e-07,5.7647787e-05,6.6168205e-08
602,0.9993692,0.000609481,3.739189e-06,1.7556737e-05,1.33694895e-08
603,0.9999672,3.1561052e-05,1.0989676e-06,7.835551e-08,2.062605e-08
604,0.9996562,0.00033725574,4.0045217e-07,6.115389e-06,7.135748e-09
605,0.99837315,0.0016047457,3.523888e-06,1.8523853e-05,4.7175425e-10
606,0.99999857,1.4561467e-06,5.6981062e-11,8.705079e-11,5.4109397e-13
607,0.9999933,3.1707137e-07,1.730563e-09,6.2692934e-06,8.795453e-12
608,0.9977386,0.0017536868,1.1780255e-05,0.0004895563,6.388142e-06
609,0.9999603,3.97179e-05,1.5135665e-08,3.6544733e-08,1.6216879e-11
610,0.999949,4.9409606e-05,1.6425336e-06,4.7783384e-08,3.619518e-08
611,0.99999833,1.6265243e-06,2.9509736e-10,3.6111957e-11,4.2743044e-12
612,0.9968677,0.003010169,7.703511e-05,4.3345604e-05,1.7310765e-06
613,0.9974354,0.00046917188,4.302867e-07,2.3839295e-05,0.0020712041
614,0.9999896,1.0285363e-05,1.2375341e-07,9.634107e-11,4.0375778e-10
615,0.9896477,6.2138744e-05,1.1737699e-05,0.010277907,4.5166175e-07
616,0.99994445,4.946412e-05,3.0090348e-06,3.085334e-06,1.1751194e-10
617,0.9999956,3.955153e-06,2.3141913e-09,4.951729e-07,2.1051097e-10
618,0.99999607,1.8589379e-06,1.8485304e-08,2.0040745e-06,3.2231422e-11
619,0.99999344,6.403739e-06,4.8141717e-09,7.526554e-08,1.5214272e-14
620,0.9961144,0.0035923747,0.00016429978,6.7640845e-05,6.1320265e-05
621,0.9995115,0.00040933953,4.963129e-05,6.4362157e-06,2.3159342e-05
622,0.9913113,2.4607536e-05,1.7008758e-06,0.0086622,2.0843532e-07
623,0.999705,0.00029175993,3.7363954e-08,3.206077e-06,1.637303e-11
624,0.9998758,0.000118001815,5.7498573e-07,4.341547e-06,1.3695058e-06
625,0.9998399,0.000100035,3.1103864e-05,2.7294662e-05,1.7230088e-06
626,0.99986243,0.00013410882,4.719856e-08,3.3865736e-06,2.30361e-09
627,0.9999968,2.3449338e-06,8.1987514e-07,7.961817e-09,1.342235e-09
628,0.9999765,1.1790633e-05,6.438381e-08,1.1592757e-05,3.0665347e-14
629,0.9998228,0.00016655584,2.1258004e-06,8.651097e-06,2.3556408e-09
630,0.9980305,8.311052e-05,0.00081768463,0.0010536186,1.4934129e-05
631,0.9999733,2.6601549e-05,2.2245711e-08,1.3354429e-07,5.9531515e-14
632,0.99989426,0.00010544965,7.0289e-08,1.7561688e-07,5.6689458e-12
633,0.9995958,0.00026098042,1.5232254e-07,0.00014269963,3.183509e-07
634,0.99999774,2.0088273e-06,2.7625461e-08,1.5265216e-07,7.496051e-13
635,0.9995141,0.00046978728,1.1320415e-06,1.4929011e-05,2.614474e-09
636,0.9999964,3.4131135e-06,2.7162294e-08,1.3018183e-07,4.1702722e-10
637,0.9618385,0.038142957,6.8356107e-06,1.1785786e-05,2.6066291e-09
638,0.99999833,1.5078109e-06,7.884828e-10,6.91814e-08,4.7679355e-10
639,0.9999807,1.1664824e-05,3.9213965e-06,3.7492352e-06,2.4384546e-08
640,0.99726415,0.002730383,1.3039263e-08,4.3383666e-06,1.0206787e-06
641,0.9987031,0.0011581054,9.829645e-05,3.9894458e-05,4.6068598e-07
642,1.0,2.1940082e-08,4.863062e-16,3.6588427e-13,2.1783562e-18
643,0.9998592,0.00013936292,1.2347189e-06,1.6063728e-07,9.138871e-10
644,0.98975265,0.0038849693,0.00016734384,0.0061894413,5.5730766e-06
645,0.9999193,7.517198e-05,4.339492e-08,5.4398347e-06,9.701405e-09
646,0.9999007,9.715911e-05,1.7358797e-06,2.627854e-07,1.0255633e-07
647,0.99991083,8.262116e-05,1.05264945e-07,6.478584e-06,3.1696068e-10
648,0.99999654,1.5849356e-06,6.188581e-07,1.2428492e-06,3.2901096e-10
649,0.9999863,1.3663622e-05,1.8036217e-13,1.8566357e-08,1.3266285e-10
650,0.9989359,0.0010600932,4.300952e-07,3.5980433e-06,8.238394e-09
651,0.99957114,0.00041621376,4.4477538e-08,1.2565719e-05,3.4218524e-09
652,0.9991967,1.3487506e-05,0.0007773422,1.0445383e-05,1.9883357e-06
653,0.99994636,5.2712716e-05,4.5990393e-07,4.874803e-07,1.3233532e-10
654,0.999899,9.889281e-06,8.0533034e-08,9.095332e-05,1.2094888e-10
655,0.9999957,4.176992e-06,1.8719033e-09,1.0080312e-07,1.7407715e-15
656,0.9999963,3.6519884e-06,5.632036e-09,3.3724015e-09,2.0764274e-10
657,0.99548495,0.0044467095,3.3510698e-06,6.458695e-05,4.9198593e-07
658,0.999995,3.2839075e-06,4.9055364e-09,1.653356e-06,1.6591148e-10
659,0.9784551,0.016677622,4.5565585e-06,0.0048254826,3.7174956e-05
660,0.99946016,0.0005330334,2.8245825e-07,6.5109793e-06,5.7112568e-11
661,0.9977725,0.002097774,1.1176753e-05,0.00011794353,5.22634e-07
662,0.99006444,0.009162758,7.5088385e-05,0.0006566052,4.1190742e-05
663,0.9994646,0.00025692975,2.6291075e-06,0.00027564587,2.2251373e-07
664,0.99126095,2.4803956e-05,2.3114662e-06,0.008711669,2.5742222e-07
665,0.9999846,1.2463458e-05,2.232498e-08,2.862918e-06,4.08914e-11
666,0.99906486,0.0009329263,4.2688998e-07,1.7942734e-06,2.1682597e-11
667,0.999997,8.340908e-07,3.2919817e-10,2.1508972e-06,7.408615e-13
668,0.99846625,0.0015222315,1.7709266e-06,9.737395e-06,2.1355533e-09
669,0.9986644,0.0012289897,3.3999734e-06,0.00010322999,4.4839386e-08
670,0.9999114,7.880518e-05,3.3676017e-06,6.3732887e-06,1.433896e-10
671,0.99997497,2.3965637e-05,7.344823e-07,3.962008e-07,2.493981e-09
672,0.9999614,3.8340895e-05,2.2814336e-07,2.2797186e-08,8.969917e-10
673,0.99993634,6.268515e-05,2.6422668e-07,7.422375e-07,5.081131e-10
674,0.9998785,0.00011833414,1.7701958e-06,1.3713379e-06,2.3234302e-08
675,0.9962296,0.0032480187,0.000119060795,0.00040186258,1.5333512e-06
676,0.9999441,5.4981945e-05,4.361523e-08,8.7380255e-07,4.486793e-11
677,0.9999999,1.3417542e-07,8.833115e-13,1.1577817e-10,7.728752e-17
678,0.999995,5.0394638e-06,1.7758295e-14,1.4180912e-09,3.5055306e-11
679,0.99980205,0.00019261801,2.153472e-06,3.26802e-06,8.534583e-09
680,0.9999758,5.0293415e-06,8.643086e-08,1.916112e-05,8.357937e-11
681,0.99999,9.1503925e-06,1.8551303e-09,8.8331973e-07,4.2920265e-13
682,0.99998987,8.5412885e-06,3.0721232e-08,1.4625946e-06,3.2424403e-11
683,0.99960834,8.72367e-05,8.4377416e-07,0.00030364966,1.0727012e-08
684,0.99990666,9.330292e-05,1.501264e-11,3.5197242e-08,1.541027e-08
685,0.99888927,0.0011088585,2.2188317e-07,1.6433438e-06,7.556025e-11
686,0.9999621,3.7946782e-05,9.953302e-09,1.4499742e-08,1.6639323e-12
687,0.9999974,2.6227337e-06,1.603714e-14,3.4689602e-09,3.0023723e-11
688,0.9999999,1.2496939e-07,2.3454516e-11,3.1768786e-11,6.9541405e-14
689,0.9999715,2.8420605e-05,1.657741e-10,1.2512182e-07,7.3316473e-09
690,0.99992096,5.9581893e-05,1.1128214e-07,1.9360241e-05,3.3120968e-11
691,0.9488446,0.048095368,0.00030372752,0.0027486181,7.72115e-06
692,0.99994624,2.3684144e-05,1.42159415e-05,1.5864143e-05,2.3534614e-09
693,0.99996924,3.06273e-05,1.1371426e-08,5.2535825e-08,2.4169808e-10
694,0.9999765,2.3047034e-05,5.826608e-08,3.9283742e-07,8.376699e-14
695,0.99999917,7.8682154e-07,1.2121956e-08,1.7984947e-10,1.8265111e-13
696,0.9999261,1.5008125e-05,2.2372875e-07,5.8700658e-05,5.892244e-10
697,0.999977,1.432452e-05,1.8334648e-06,6.81556e-06,7.275592e-12
698,0.99945277,0.0005448904,2.2624677e-07,2.1050812e-06,3.699269e-09
699,0.9988945,0.0009928083,0.00010661078,4.4383255e-06,1.6855466e-06
700,0.99921834,0.0006290084,5.255476e-05,9.9596546e-05,4.658603e-07
701,0.99966,0.00028693952,4.6533565e-05,6.271789e-06,2.3886975e-07
702,0.99993515,6.131321e-05,2.1132719e-08,3.530256e-06,3.8061168e-10
703,0.9999858,1.4148687e-05,4.697508e-08,1.1134238e-08,1.0689831e-09
704,0.99999964,3.0603994e-07,1.4289128e-08,8.292971e-10,2.577434e-11
705,0.9999782,1.9961775e-05,5.766713e-09,1.9255365e-06,6.3689824e-11
706,0.99981505,0.00017612733,8.5873835e-06,2.3442269e-07,7.186285e-10
707,0.8264324,0.1615331,0.0034499846,0.0072944085,0.0012901465
708,0.9998466,0.00010457436,2.3184128e-05,2.4923751e-05,6.9470536e-07
709,0.9721982,0.02778585,2.0287918e-07,1.5492442e-05,3.1534995e-07
710,0.9921957,0.0003720904,6.4094047e-06,8.336512e-06,0.007417381
711,0.9984843,0.001451491,6.234301e-05,1.9021804e-06,2.8502162e-08
712,0.9999999,8.936033e-08,9.547778e-13,1.7645216e-13,4.421003e-14
713,0.99984324,1.0707846e-05,8.011657e-08,0.00014588644,4.7195803e-10
714,0.99991727,5.002738e-06,1.7034104e-07,7.758911e-05,3.109698e-09
715,0.99999285,8.7447864e-07,1.1723208e-06,5.1969378e-06,1.195966e-10
716,0.99994123,4.916677e-05,5.3697354e-06,4.292753e-06,5.0883653e-09
717,0.99982786,6.647115e-05,4.9553342e-05,5.6046276e-05,2.066716e-08
718,0.9994918,0.0004939559,2.2292177e-06,1.1976908e-05,3.4187693e-09
719,0.99998415,1.5372123e-05,1.31880356e-08,4.3725032e-07,3.309138e-10
720,0.99994266,5.495655e-05,1.2527516e-06,1.1012352e-06,2.4604173e-12
721,0.99865556,0.001257078,1.3298533e-06,7.228881e-05,1.380297e-05
722,0.9999968,2.941865e-06,1.52712e-09,2.6016932e-07,9.344168e-09
723,0.9973816,0.0021897983,0.00023645343,0.00013540502,5.6565812e-05
724,0.99999917,6.911838e-07,1.172568e-07,9.8432165e-11,5.228842e-10
725,0.9989599,0.0009493937,8.730433e-05,3.027474e-06,3.9795904e-07
726,0.9988269,0.0011480064,5.3512595e-06,1.9607985e-05,1.0546317e-07
727,0.99999213,7.1802833e-06,1.078395e-07,5.8817164e-07,9.815339e-12
728,0.9999943,1.1031651e-06,3.5008918e-07,4.3485466e-06,2.7275956e-10
729,0.9999298,3.520214e-05,1.2586386e-05,2.2418262e-05,5.146597e-09
730,0.9997234,0.00027659952,2.4741853e-10,1.6649953e-12,3.285541e-11
731,0.99901354,0.0009863747,6.756462e-10,1.6369526e-07,5.962602e-10
732,0.9999784,1.1076105e-05,1.3267789e-08,1.0421325e-05,3.8621978e-10
733,0.9997476,0.00024160882,6.9691623e-06,3.8913754e-06,9.572884e-09
734,0.9997365,0.00025359425,5.678034e-06,3.2802734e-06,9.253785e-07
735,0.968915,0.027684113,0.0024067177,0.0009711925,2.2981418e-05
736,0.9997665,0.00022060078,9.340846e-08,1.2827432e-05,5.588309e-09
737,0.9999999,1.13980974e-07,2.2773812e-12,1.4038295e-09,3.8399354e-14
738,0.9991309,0.0003848546,0.00038886865,8.721274e-05,8.236951e-06
739,0.99626046,0.0036044777,5.5299995e-05,7.960739e-05,1.1448316e-07
740,0.9998915,0.00010014908,7.826364e-06,5.33107e-07,5.088607e-09
741,0.9997851,0.00019675776,3.4053962e-06,1.4716511e-05,1.8185048e-09
742,0.9999275,7.2377225e-05,4.718721e-09,9.222596e-08,2.5538882e-10
743,0.99995124,4.7061054e-05,1.4903426e-07,1.5213793e-06,1.45933905e-08
744,0.9999541,5.113764e-06,3.994622e-05,1.8918762e-08,7.8171223e-07
745,0.99999857,1.4240168e-06,1.1668842e-08,7.567505e-11,1.2357625e-10
746,0.9998915,0.00010685692,5.859353e-09,1.6267353e-06,3.3672791e-09
747,1.0,4.216963e-08,2.1507237e-11,2.7399881e-15,1.1582202e-12
748,0.9964036,0.0018473158,0.0014893512,0.00025888896,9.563465e-07
749,0.99869233,0.0012844686,4.310159e-07,2.2806451e-05,6.341837e-10
750,0.99901414,0.00091065984,7.1771035e-05,3.4343975e-06,5.0982707e-09
751,0.9984548,0.0015357003,4.0019395e-06,5.5770374e-06,1.6477783e-08
752,0.99998045,8.700005e-06,2.6227092e-08,1.0787075e-05,2.2138787e-11
753,0.99951816,0.00042808542,2.0514382e-05,2.7471571e-05,5.6789386e-06
754,0.9992205,0.0007122341,5.610888e-07,6.638024e-05,3.8475827e-07
755,0.99733186,0.00039062087,0.00022468316,0.001112639,0.00094016985
756,0.99999857,2.0111032e-07,6.188673e-10,1.2442439e-06,6.41703e-12
757,0.9988418,0.00030265245,0.00072917185,0.00012626687,1.551635e-07
758,0.9996842,0.00031207153,3.1256545e-07,3.3606743e-06,3.0051803e-10
759,0.9999404,5.8978305e-05,4.1040866e-07,1.6708208e-07,6.5128275e-10
760,0.99999547,3.897236e-06,5.1379607e-09,5.390676e-07,5.307754e-13
761,0.9999964,5.680634e-07,6.366355e-07,2.325959e-06,7.916775e-10
762,0.999948,4.9043007e-05,3.7545078e-08,2.8958273e-06,3.8874945e-11
763,0.9964959,0.0035023936,3.3210867e-07,1.3106799e-06,5.5911425e-10
764,0.9999993,7.5072745e-07,2.1086748e-13,1.0579555e-08,3.9587096e-16
765,0.9999914,2.9234131e-06,4.993987e-09,5.6004114e-06,1.2838896e-11
766,0.9999969,3.0478477e-06,9.742375e-10,3.683154e-10,4.2424996e-12
767,0.9999956,2.740569e-06,5.616183e-07,1.1268529e-06,7.487754e-11
768,0.9961022,0.0036360973,1.7014405e-05,0.000244704,5.338794e-08
769,0.99987686,0.000121369456,5.9460903e-09,1.7642923e-06,9.0084754e-13
770,0.99998426,1.019867e-05,4.1496712e-10,5.4745587e-06,1.3864085e-08
771,0.9999052,9.0114736e-05,4.1200224e-06,5.8373416e-07,4.1814382e-11
772,0.9999422,4.608866e-06,2.2263282e-07,5.2915726e-05,1.4634037e-08
773,0.99996364,7.403337e-06,1.7681275e-08,2.8921866e-05,1.02139776e-10
774,0.99997544,2.3272205e-05,3.355497e-08,1.2516009e-06,1.4007901e-11
775,0.9999945,3.6750723e-06,7.834263e-10,1.835621e-06,6.517853e-10
776,0.9991787,2.0071984e-05,4.7435947e-08,0.0008010748,4.50446e-08
777,0.96320754,0.0013553103,0.034504313,0.0007025017,0.00023041449
778,0.99974805,0.00023249358,1.8416213e-05,1.0057869e-06,1.0219443e-08
779,0.99997044,1.2447074e-06,4.027056e-10,2.8341625e-05,9.837327e-10
780,0.999401,0.00054949994,4.7208352e-05,3.3822465e-07,2.0250793e-06
781,0.99937195,0.0005421756,1.5784499e-05,7.007253e-05,7.092421e-09
782,0.9977652,0.0020857544,4.538051e-06,0.00014443997,1.0422e-08
783,0.9998567,0.00014056,3.4303895e-07,2.3984694e-06,6.3130824e-12
784,0.9973157,0.00065865787,0.0019700408,3.8617625e-05,1.7038821e-05
785,0.999108,0.0008895212,1.5917565e-06,8.290917e-07,4.0223878e-09
786,0.999961,2.8751068e-05,2.9294217e-08,1.0237128e-05,6.432282e-11
787,0.99997663,2.3239718e-05,1.555879e-08,1.5308467e-07,8.993329e-15
788,0.9999566,4.3427783e-05,2.3246152e-14,5.686551e-12,5.1184066e-12
789,0.9999901,9.183966e-06,4.5633115e-08,6.161188e-07,4.190962e-10
790,0.999752,0.00024291064,4.3003156e-06,8.42575e-07,1.1614268e-10
791,0.99995756,1.5861871e-05,2.5190848e-05,1.2258103e-06,1.0752358e-07
792,0.9880112,0.011985341,2.3691953e-06,1.1692217e-06,4.8973867e-08
793,0.99675095,0.0032162517,2.642506e-06,3.0169518e-05,2.4789529e-08
794,0.99998975,5.489112e-06,7.911956e-09,4.789652e-06,1.8233047e-10
795,0.9999927,7.2006674e-06,2.9753968e-09,1.5029622e-07,1.9068223e-10
796,0.9999373,5.555159e-05,1.3420208e-07,6.999776e-06,2.7935341e-08
797,0.99680734,0.0021577594,0.00091166445,4.811821e-05,7.5118915e-05
798,0.99920505,0.00050442346,3.388308e-05,0.00025668522,6.9620287e-09
799,0.9999993,6.8557415e-07,1.4014917e-11,2.3161794e-08,1.2841378e-14
800,0.9999783,2.3793357e-06,5.0953837e-08,1.9303496e-05,7.785344e-12
801,0.9995339,0.00015186776,0.0003131493,5.305917e-07,4.5259563e-07
802,0.99994445,5.3680247e-05,1.6433401e-07,1.7858586e-06,2.2627367e-09
803,0.99819154,3.6332032e-05,6.726941e-07,0.0017715087,6.0850383e-09
804,0.99990594,1.8874018e-05,3.0852798e-06,7.210443e-05,3.859072e-08
805,0.99998116,1.795759e-05,7.228362e-07,6.936254e-08,3.3772375e-12
806,0.99995184,4.7727026e-05,1.7198868e-08,4.807677e-07,3.5063424e-11
807,0.99979824,0.00016599675,9.895946e-09,3.567012e-05,1.103064e-07
808,0.9999894,1.0604436e-05,1.19665736e-11,2.8276459e-08,4.2161275e-13
809,0.9995517,0.0004374921,8.945267e-06,1.7217698e-06,1.6891578e-09
810,0.99999464,5.2768746e-06,1.4470478e-09,8.6021e-08,2.7403511e-14
811,0.99990904,9.095943e-05,9.052322e-10,8.8732255e-13,4.0952935e-11
812,0.99968445,6.967789e-05,2.6406367e-05,0.00021891325,4.6774161e-07
813,0.99980444,0.00019423364,7.820929e-08,1.2275106e-06,9.948392e-09
814,0.99996555,3.3402204e-05,3.5164203e-09,1.0469447e-06,2.1027079e-13
815,0.9996604,0.000330245,2.4773203e-06,6.8796808e-06,3.779102e-08
816,0.9991905,0.0008064907,3.681478e-07,2.5562542e-06,5.2119855e-09
817,0.9999963,3.453616e-06,2.5078177e-07,9.497688e-09,2.522207e-12
818,0.9998727,5.7010884e-06,9.025826e-09,0.00012160855,3.3851805e-10
819,0.9998498,0.00012881322,1.791432e-05,2.9982175e-06,5.1001757e-07
820,0.99983037,0.0001687673,3.544535e-07,5.048732e-07,1.4581666e-12
821,0.99981755,0.00017439903,2.1163277e-07,7.9144165e-06,2.5386679e-11
822,0.9999764,2.3362556e-05,2.3996452e-07,9.24102e-09,2.278154e-11
823,0.9999453,5.3880627e-05,1.7490244e-07,6.5658475e-07,1.983377e-09
824,0.9999976,2.022888e-06,6.802423e-09,3.2336712e-07,5.3818168e-09
825,0.9917528,0.0072173704,0.0009074859,4.3122374e-05,7.9215235e-05
826,0.9661561,9.878102e-05,1.0332736e-05,0.033732694,2.0870477e-06
827,0.9999478,4.9598628e-05,1.0935778e-06,1.4802373e-06,3.8967025e-09
828,0.9999958,4.1953413e-06,1.500404e-08,7.732376e-10,4.2827968e-12
829,0.99997437,2.1060745e-05,1.0304575e-09,4.50671e-06,3.0998023e-13
830,1.0,2.4465148e-08,1.364851e-10,1.5527954e-13,1.2253023e-12
831,0.9999436,4.8121605e-05,6.8238615e-09,8.260288e-06,1.1813207e-10
832,0.9999368,5.9818605e-05,1.8679136e-08,3.355758e-06,1.465611e-08
833,0.99999857,1.3180393e-06,5.1583218e-09,1.4220875e-07,5.6114423e-12
834,0.9998956,5.055147e-05,4.5948695e-05,7.706396e-06,2.4548444e-07
835,0.9998248,0.00017217148,2.6387718e-07,2.7739475e-06,8.0320034e-10
836,0.9980793,0.0016767343,7.3945325e-06,0.0002360198,5.0839157e-07
837,0.99752885,0.0007252039,0.0015031655,0.00015151716,9.11835e-05
838,0.9999037,9.0193695e-05,1.6491416e-07,5.926614e-06,1.4879957e-10
839,0.99989533,0.000100512676,3.4191212e-06,7.490604e-07,5.3988876e-09
840,0.99986887,0.00012759778,5.7446107e-07,2.911945e-06,1.218271e-10
841,0.32902312,0.67051584,0.00032520102,2.1599641e-08,0.00013579027
842,0.9999987,1.3668697e-06,2.225929e-13,2.8488594e-09,9.670793e-15
843,0.9999188,4.8317692e-05,2.8278927e-07,3.2661723e-05,2.2110752e-11
844,0.99998236,4.6261e-07,1.4417694e-11,1.7213235e-05,2.234556e-11
845,0.99985313,0.00014644225,3.2121514e-07,3.4069792e-08,2.2029303e-09
846,0.9999597,2.9544828e-05,6.602559e-10,1.0708921e-05,1.0476508e-08
847,0.99109685,0.008532909,0.00020172879,0.00016097477,7.5843805e-06
848,0.9982358,0.0017450681,5.2777884e-09,1.9066747e-05,2.1093948e-08
849,0.9998592,9.8819815e-05,8.436604e-08,4.1887855e-05,7.3195627e-09
850,0.9998399,0.00015808866,4.107578e-07,1.6186757e-06,2.0618526e-10
851,0.99924254,0.00047331795,0.00023126575,5.2624244e-05,3.3807558e-07
852,0.9999844,1.5485777e-05,3.5885748e-08,2.8821868e-08,3.202486e-10
853,0.9998487,0.00015109924,9.921319e-09,6.286598e-08,1.5955469e-10
854,0.9999813,1.8725888e-05,9.297727e-17,7.903871e-15,2.698796e-15
855,0.9999865,3.4342208e-06,3.348096e-06,6.717674e-06,1.9093556e-09
856,0.99999976,2.3100976e-07,7.68814e-14,1.8143555e-10,1.6015773e-15
857,0.9950119,0.004977648,1.0368912e-07,1.0298272e-05,4.3547615e-08
858,0.9999999,6.858554e-08,4.0297063e-12,3.3432856e-09,3.972467e-14
859,0.99994564,4.236843e-05,5.737835e-07,1.1461102e-05,4.092336e-11
860,0.99870515,0.00087968097,1.4690608e-05,0.00036282654,3.763576e-05
861,0.9995485,0.0003452623,4.6473742e-05,5.9633643e-05,1.0882414e-07
862,0.99998116,1.8084322e-05,3.0038063e-08,6.6039763e-07,2.4907246e-10
863,0.9994753,0.00020046154,0.00030209613,1.9779578e-05,2.35781e-06
864,0.99999094,1.129439e-07,8.4628027e-10,8.945374e-06,1.46638e-13
865,0.9999987,1.2685329e-06,4.0053988e-10,6.4213495e-13,2.5366254e-11
866,0.99871266,0.0012867224,7.4062454e-09,6.425797e-07,5.421985e-10
867,0.99936765,0.000618147,8.460912e-07,1.3390159e-05,1.4648941e-08
868,0.99924755,0.00074125984,1.2008488e-06,9.9524395e-06,6.0362104e-10
869,0.99999464,2.1733736e-06,1.9535945e-10,3.208315e-06,5.6488423e-09
870,0.9999918,4.3824666e-06,1.8547222e-10,2.1620394e-07,3.587192e-06
871,0.9986033,0.0013950794,7.489872e-08,1.5895677e-06,7.448856e-12
872,0.9999963,3.452809e-06,5.198427e-10,2.9738814e-07,1.6281122e-11
873,0.9997557,0.00024374205,3.2969456e-08,6.191819e-07,7.515884e-12
874,0.9999912,8.821023e-06,8.3712314e-14,6.63914e-09,4.710774e-13
875,1.0,1.889507e-08,2.9937852e-15,6.6383778e-12,5.6981482e-18
876,0.9998988,8.195916e-05,5.4726026e-08,1.9137675e-05,4.3770715e-10
877,1.0,1.9164897e-08,5.811801e-13,4.1505827e-14,8.355317e-15
878,0.9952899,2.3926945e-05,2.2653066e-06,0.004683744,8.2872056e-08
879,0.99877745,0.0011598999,2.9116682e-05,3.3485045e-05,2.327117e-08
880,0.9998486,0.00015008874,1.2292406e-07,1.1363898e-06,4.0679744e-09
881,0.99401927,0.0059730094,4.4949115e-07,7.2213634e-06,1.3329678e-09
882,0.981388,0.018237099,0.00012962871,0.0002452285,1.2354644e-07
883,0.9993868,0.0006033655,5.5899786e-06,4.151727e-06,1.0138533e-08
884,0.9997216,0.00026285028,1.6466727e-07,1.5387592e-05,3.0552822e-09
885,0.9999995,1.3772951e-07,3.6445854e-08,3.5674134e-07,6.92101e-12
886,0.9989518,0.0009984021,4.8136385e-06,4.4291955e-05,6.7473235e-07
887,0.9996038,0.00039472853,1.0971155e-07,1.3675567e-06,3.9938977e-12
888,0.9817577,0.0001987319,1.87519e-05,0.018019564,5.3187673e-06
889,0.9999858,7.307039e-06,3.8186047e-07,6.53629e-06,3.6258339e-09
890,0.99999964,3.0382515e-07,1.0303336e-10,6.4349716e-15,2.989562e-11
891,0.9998617,0.00012614075,3.0271667e-07,1.1870995e-05,1.3290192e-09
892,0.99822587,0.0010366527,1.3383072e-06,0.0007360666,4.35548e-09
893,0.9990901,0.0005630203,1.5576243e-05,1.9175923e-05,0.00031217557
894,0.99997354,2.349216e-05,1.1759597e-08,2.9426722e-06,4.4684886e-10
895,0.9999789,2.0155261e-05,1.4938843e-09,8.927877e-07,4.7570514e-10
896,0.99998534,1.4692923e-05,3.2232504e-14,1.0083399e-11,1.2506568e-13
897,0.99536574,0.0011480792,0.0028802012,0.00040527634,0.0002006535
898,0.9890882,0.005941848,0.0040657837,0.0008388404,6.535441e-05
899,0.9995178,0.00047502766,6.5047976e-07,6.494536e-06,1.11361295e-10
900,0.9989305,0.0010682694,3.988839e-07,8.326587e-07,4.303265e-10
901,0.9995757,0.00013523959,1.27803105e-05,0.0002762647,2.2672767e-08
902,0.9999542,4.081392e-05,2.072428e-07,4.7909443e-06,8.597064e-11
903,0.9986432,0.001356548,2.5741528e-08,2.1400281e-07,1.4382447e-10
904,0.22855084,0.77137583,7.097455e-05,9.99771e-07,1.2429578e-06
905,0.99986076,2.0306197e-05,2.0300135e-05,9.871202e-05,4.556781e-12
906,0.9925494,0.007172516,1.5479882e-05,0.00026093394,1.6295753e-06
907,0.9999933,5.8104256e-06,6.933716e-09,8.206694e-07,6.607262e-11
908,0.9999927,7.2621206e-06,5.1335184e-13,1.0994503e-16,6.0593254e-14
909,0.99999714,1.6244855e-06,2.4711335e-12,1.1834094e-06,4.799982e-11
910,0.98594844,0.002409942,0.01046636,0.0008956087,0.0002797755
911,0.99741143,0.0025696764,8.1340136e-07,1.8066374e-05,3.2832836e-09
912,0.9999567,4.1634652e-05,4.4935256e-09,1.6896046e-06,2.15827e-11
913,0.9999678,2.1323905e-05,8.292066e-08,1.0798775e-05,7.3508416e-10
914,0.99949765,0.00036684278,0.00012557412,9.7439315e-06,8.299542e-08
915,0.9999833,1.6576161e-05,2.3675308e-11,1.4987356e-07,1.6260143e-08
916,0.98657984,0.013407359,2.8942816e-06,9.918716e-06,1.6792459e-09
917,0.9899955,0.009993352,4.9063175e-07,1.0593448e-05,7.767601e-08
918,0.9998838,0.00011602316,1.0257963e-07,1.11833565e-07,4.221645e-13
919,0.991991,7.377884e-05,7.3577144e-06,0.007927126,6.986592e-07
920,0.9995359,0.0004599788,3.4068048e-06,6.251887e-07,8.649769e-08
921,0.9899803,0.0017784203,0.007359343,0.0008723782,9.547428e-06
922,0.9999039,8.319081e-05,2.2861277e-06,1.0425708e-05,1.4678729e-07
923,0.9993316,0.0001399741,0.00028213084,0.00024341267,2.8293996e-06
924,0.99987507,0.00012494027,5.1974424e-13,4.4970685e-09,1.5704725e-12
925,0.96442443,0.025773497,0.0076880674,0.0015757149,0.00053827907
926,0.99998856,1.1497711e-07,6.3661287e-07,1.0672627e-05,1.1734315e-09
927,0.9999598,3.9244373e-05,1.1850265e-08,9.0696983e-07,9.3956044e-11
928,0.9998323,0.00016153802,1.14727946e-07,6.0480847e-06,1.1042935e-10
929,0.99991167,3.416923e-05,9.887759e-07,5.3134892e-05,8.223807e-09
930,0.9993349,0.00032732225,0.00024963278,8.728681e-05,8.076814e-07
931,0.9999628,3.516733e-05,6.866127e-08,2.0113796e-06,3.648832e-09
932,0.99999976,2.4292967e-07,3.979922e-10,5.0673087e-08,8.029146e-11
933,0.9974744,0.0020150468,1.4183992e-05,0.00048432726,1.2079197e-05
934,0.99998367,1.6261494e-05,2.7182636e-11,9.648241e-08,4.2605324e-13
935,0.9999856,1.3681319e-05,2.7038512e-08,7.435017e-07,1.0225542e-11
936,0.9999863,1.3719493e-05,1.2779336e-08,1.6538634e-08,1.057969e-10
937,0.9995426,0.0004437685,1.0026921e-06,1.2737567e-05,5.1818887e-09
938,0.99975926,0.00023817905,2.670496e-07,2.3537432e-06,1.15742745e-11
939,0.99997985,2.0159452e-05,4.596459e-08,5.6767483e-11,1.3188676e-09
940,0.99987257,0.000120661374,2.625393e-07,6.507457e-06,5.3161624e-08
941,0.9999938,4.560631e-06,3.1062103e-07,1.3973184e-06,9.510688e-11
942,0.99933654,0.00065938657,3.5708276e-06,4.8518467e-07,6.178625e-09
943,0.9999238,6.792225e-05,1.2499504e-07,8.064971e-06,4.4687587e-11
944,0.99919826,0.0007942267,6.375713e-08,7.4177474e-06,6.3440184e-11
945,0.99999464,3.4176053e-06,3.1466712e-08,1.9180375e-06,7.030091e-11
946,0.9998852,0.00011156673,3.1869384e-08,3.2305477e-06,1.0757257e-08
947,0.9983821,0.00017537463,0.0014062634,2.5966177e-05,1.0290396e-05
948,0.9996358,0.00021998436,0.00013166934,1.2566282e-05,5.7844205e-09
949,0.99993896,5.946483e-05,1.3724766e-06,1.2034108e-07,5.149857e-12
950,0.9999999,1.1357072e-07,7.735379e-12,2.4227157e-12,1.451539e-13
951,0.9999846,1.4149265e-05,1.5249336e-08,1.1809774e-06,4.7426896e-11
952,0.9808772,9.0082474e-05,6.154429e-06,0.01902491,1.6292597e-06
953,0.9983902,0.0015665771,3.613661e-05,7.0749443e-06,5.503273e-09
954,0.99996746,3.0789815e-05,1.7416402e-06,4.9354636e-08,6.798535e-09
955,0.9978242,0.0021083513,6.487304e-06,6.1007806e-05,3.480211e-08
956,0.99979776,9.737941e-05,8.134834e-05,2.2998393e-05,4.496494e-07
957,0.99964154,0.0003517763,5.613258e-07,6.1226406e-06,1.1869081e-09
958,0.99955016,0.0003736232,3.888588e-05,3.719207e-05,8.639588e-08
959,0.9999534,3.4596273e-05,5.997471e-06,5.99691e-06,2.6388305e-08
960,0.9999993,7.606873e-07,1.6608163e-13,3.6175848e-10,3.4487162e-15
961,0.9999968,3.2079e-06,1.835125e-13,4.8610422e-09,1.6752716e-10
962,0.9999869,1.3086996e-05,6.554908e-13,3.9248884e-16,2.860712e-13
963,0.99983525,0.00016360813,6.657711e-08,1.0399287e-06,9.942113e-10
964,0.9999769,2.2419274e-05,3.95542e-09,6.7306485e-07,5.6232054e-11
965,0.9996942,0.00028746293,1.5279032e-07,1.8233286e-05,2.7514627e-10
966,0.99999046,9.18467e-06,4.5562516e-08,3.1673892e-07,2.3498213e-12
967,0.99996936,2.4238312e-05,1.8864318e-08,6.376004e-06,3.1152952e-11
968,0.9998839,2.7958517e-05,4.6702007e-07,8.7651664e-05,2.5983615e-09
969,0.9983419,0.0016577513,2.4424164e-08,2.3734053e-07,1.498889e-07
970,0.99524224,5.5038545e-05,3.0160115e-06,0.0046992796,4.686503e-07
971,0.9437323,0.05224198,0.0032682263,0.00045474316,0.00030276104
972,0.9999008,9.0221314e-05,3.7326976e-07,8.545808e-06,1.3396197e-10
973,0.99999833,2.6711524e-07,1.1543265e-07,1.3245057e-06,7.594655e-12
974,0.99967563,0.0002934726,1.2521848e-07,3.0581272e-05,6.3981204e-08
975,0.9982774,0.00019713838,0.0011391424,0.00037850984,7.684912e-06
976,0.99963486,0.0003646234,2.62949e-08,4.5206932e-07,3.2475905e-10
977,0.99982905,0.0001693438,2.5251467e-07,1.3229611e-06,5.344313e-09
978,0.9999938,5.563762e-06,6.5975655e-08,4.969897e-07,5.0966745e-13
979,0.9997762,0.00012172409,1.0477647e-07,0.00010205961,6.0585337e-10
980,0.9999889,1.0896589e-05,2.2554238e-07,1.3056541e-09,8.6953417e-10
981,0.99997616,1.9463223e-05,7.457206e-08,4.3205155e-06,1.2383136e-10
982,0.99999535,4.3614177e-06,5.5547176e-09,1.7784566e-07,1.7271315e-08
983,0.99995804,1.1697054e-05,2.3225084e-05,6.99669e-06,5.6303094e-08
984,0.9985378,0.0014525984,5.959223e-06,3.515231e-06,9.990066e-08
985,0.99971527,6.911438e-05,7.795596e-07,0.00021486718,5.5199635e-08
986,0.9998124,0.00016047887,2.7001715e-05,1.3512894e-07,2.3349422e-08
987,0.99948525,0.00021601071,0.00023479047,6.204358e-05,1.881468e-06
988,0.99989843,0.000101600286,3.2028884e-14,9.147997e-11,1.1068248e-11
989,0.99999535,4.642157e-06,5.246647e-09,1.8815074e-08,8.251261e-15
990,0.9804536,0.0054689036,0.013791114,0.0002465083,3.983317e-05
991,0.9610854,0.038911216,1.2838291e-06,1.3773002e-06,7.4527935e-07
992,0.99979407,0.0002023553,3.4697557e-06,6.49739e-08,2.328664e-08
993,0.9999497,5.011747e-05,1.783828e-07,2.0308978e-08,1.2289779e-09
994,0.27077067,0.021969495,0.5210778,0.16882771,0.01735426
995,0.9999871,1.0925592e-05,5.9048704e-09,1.8858806e-06,8.889293e-11
996,0.9999999,1.1137608e-07,9.768709e-11,4.049625e-15,2.1135482e-13
997,0.99997723,2.2623797e-05,2.890071e-08,1.2305013e-07,5.3494183e-13
998,0.9999908,9.2249475e-06,2.1285547e-09,2.6815908e-08,8.536072e-11
999,0.99951243,0.00048628144,1.0534921e-09,1.2889027e-06,5.7967275e-09
1000,0.999974,1.42370955e-05,9.3229716e-08,1.176616e-05,2.9233467e-09
1001,0.99995935,3.49227e-05,4.974536e-06,8.0147777e-07,4.6623487e-08
1002,0.99999213,7.852991e-06,4.540069e-09,4.0708503e-08,3.439403e-15
1003,0.9999999,6.073955e-08,1.035874e-12,1.7788893e-14,1.5722682e-13
1004,0.9995647,0.00041191856,1.1182715e-06,1.9294648e-05,2.949292e-06
1005,0.9998945,0.00010108263,2.9009888e-07,4.0915206e-06,1.1828664e-09
1006,0.9625013,0.00017821223,9.029208e-06,0.037307467,3.9738425e-06
1007,0.9999987,7.512355e-07,4.8307697e-10,6.111877e-07,2.994794e-10
1008,0.99998784,1.1460296e-05,9.073854e-09,7.6485696e-07,5.863721e-12
1009,0.9998691,6.204427e-05,4.4367053e-07,6.835572e-05,4.9736335e-09
1010,0.9979043,0.0018408356,3.0409232e-05,0.00022454794,1.3792117e-08
1011,0.9998797,0.00011530922,3.8029043e-07,4.5764095e-06,3.0203245e-10
1012,0.99998045,6.389826e-06,3.9966224e-08,1.3031403e-05,1.0957639e-10
1013,0.999969,2.7795157e-05,1.3466942e-07,3.0880385e-06,9.861533e-09
1014,0.9671978,0.0041233194,0.011192006,0.008903346,0.0085835215
1015,0.9968966,2.4580595e-05,9.3055667e-07,0.0030777347,1.6586222e-07
1016,0.9999995,4.736812e-07,1.6715969e-09,3.2458487e-12,1.8640204e-11
1017,0.9985464,0.001369492,4.9123455e-06,7.911817e-05,2.6752137e-10
1018,0.99993527,2.4481358e-07,1.6863415e-09,6.44401e-05,5.845524e-12
1019,0.9979382,0.0020442246,1.5266319e-06,1.5977657e-05,1.0622801e-10
1020,0.9999907,1.0473465e-06,6.593476e-10,8.277734e-06,1.6938455e-10
1021,0.99998105,9.531829e-06,3.6328415e-06,5.766353e-06,1.549036e-09
1022,0.9999008,5.592094e-05,1.5752961e-07,4.3076165e-05,1.566107e-08
1023,0.99157774,0.0081898095,5.814199e-07,0.00023181354,1.9583064e-08
1024,0.9981875,0.001706705,9.180293e-05,1.402609e-05,2.8394355e-08
1025,0.99999535,7.0679306e-07,1.2459309e-06,2.6306268e-06,1.5988891e-09
1026,0.99996066,3.554344e-05,2.4940098e-07,3.6197366e-06,1.6924252e-10
1027,0.99992085,4.12463e-05,2.1547048e-05,1.6231083e-05,9.944073e-08
1028,0.99872476,0.001183682,1.9774796e-05,7.175154e-05,3.5240365e-08
1029,0.99999964,4.1519263e-07,3.7263026e-14,2.0468133e-10,2.1648227e-15
1030,0.99998367,3.8399367e-06,3.870725e-08,1.2532541e-05,2.5551119e-11
1031,0.996748,0.0014446035,0.0011475879,0.00065867597,1.2044362e-06
1032,0.99755657,0.0021164473,5.404748e-07,0.0003262195,1.11286774e-07
1033,0.9998374,3.32813e-05,5.0404232e-08,0.00012924858,1.6084432e-08
1034,0.99996185,2.9811192e-05,4.738827e-08,8.240547e-06,7.040887e-12
1035,0.9999896,9.260282e-06,4.068168e-09,1.089496e-06,2.07518e-12
1036,0.99380034,0.006080468,1.2163963e-05,0.00010700689,2.2470507e-08
1037,0.999918,7.948165e-05,7.81688e-08,2.380565e-06,5.521741e-10
1038,0.9964059,0.0030755613,8.5956846e-05,0.00043256415,1.70696e-08
1039,0.9999511,4.8416026e-05,6.95962e-08,3.704094e-07,2.3182587e-13
1040,0.99998987,6.399143e-06,1.4398635e-09,3.6359236e-06,6.204386e-10
1041,1.0,5.237026e-08,1.6205663e-17,2.761398e-12,1.5045646e-13
1042,0.99985874,9.661792e-05,2.7742226e-07,4.4334953e-05,1.1645223e-08
1043,0.9998863,1.818547e-05,1.0620294e-07,9.541808e-05,9.0041763e-10
1044,0.9996094,0.00034697764,6.0546563e-07,4.273867e-05,1.930215e-07
1045,0.99996305,2.5433828e-05,1.10616625e-07,1.1456275e-05,9.459127e-11
1046,0.9999304,6.516376e-05,3.0848873e-06,1.3687004e-06,1.8371685e-08
1047,0.999877,0.00011146127,9.602795e-06,1.4693452e-06,4.756633e-07
1048,0.99998736,9.229641e-06,4.844154e-08,3.3559818e-06,4.771986e-10
1049,0.99881256,0.0011310034,4.8833062e-05,7.3951246e-06,1.9471892e-07
1050,0.9997638,0.00022401131,3.1961162e-07,1.1822947e-05,1.9255147e-08
1051,0.9999988,2.5577498e-07,4.5908552e-10,9.317261e-07,3.948729e-13
1052,0.99998724,4.192561e-06,2.143634e-09,8.620636e-06,2.7846043e-11
1053,0.9999585,4.1055555e-05,3.8845522e-09,4.2379276e-07,1.3532847e-11
1054,0.9999821,1.7177646e-05,8.63197e-08,6.356478e-07,5.7367605e-10
1055,0.9999721,2.656833e-05,1.9054172e-09,1.2535963e-06,8.6916765e-11
1056,0.9978009,0.00084798504,0.0013391192,9.779917e-06,2.2736265e-06
1057,0.9999974,2.4111e-06,4.178943e-12,2.8088132e-07,5.074334e-13
1058,0.99870944,0.0012825705,2.4621336e-06,5.4701877e-06,7.801117e-09
1059,1.0,1.9545052e-08,9.2581514e-14,1.7541857e-10,1.8635339e-15
1060,0.99951935,0.00026744106,0.00017926007,2.8145667e-05,5.775355e-06
1061,0.99993396,6.518531e-05,7.440808e-08,7.838763e-07,1.4045592e-09
1062,0.99999654,6.626076e-07,2.2489834e-08,2.7020765e-06,4.713219e-12
1063,0.84046406,0.15952949,5.7315724e-06,4.0914983e-07,3.2223758e-07
1064,0.99999726,2.5979293e-06,1.02410275e-10,1.6368604e-07,8.0559914e-10
1065,0.99998105,1.6243663e-06,6.4937704e-09,1.7248427e-05,8.154252e-11
1066,0.9999881,1.1899552e-05,6.177908e-11,3.6617576e-10,2.3559412e-12
1067,0.9998834,7.105424e-05,2.391616e-05,2.1535108e-05,6.58359e-08
1068,0.99997413,2.5788437e-05,2.291632e-08,8.257254e-08,4.595481e-14
1069,0.99485636,0.0048026694,0.00028541478,5.5325007e-05,2.3624024e-07
1070,0.9999951,2.7669712e-06,5.9157514e-07,1.5627261e-06,1.03547095e-10
1071,0.9999994,2.7400762e-07,5.564771e-13,3.297962e-07,1.1750264e-11
1072,0.999941,5.449109e-05,1.6098599e-07,4.3879318e-06,1.154028e-09
1073,0.9999802,1.1487565e-05,3.4861162e-07,8.039629e-06,4.003527e-15
1074,0.9994487,0.0005406792,4.708015e-06,5.929954e-06,2.8258191e-09
1075,0.9999995,4.723063e-07,2.19853e-09,2.224592e-11,1.19472175e-11
1076,0.99961,0.00038544717,1.0238263e-06,3.4918537e-06,4.8887193e-11
1077,0.9999831,1.6801248e-05,2.8694192e-08,7.384618e-08,7.171388e-14
1078,0.99869907,0.0012995661,1.0342641e-08,1.3395827e-06,2.3515184e-08
1079,0.99859756,0.0013837813,1.712302e-05,1.5711177e-06,1.7100016e-10
1080,0.9997862,0.00019580312,1.5912208e-05,2.046552e-06,2.035304e-08
1081,0.9999975,2.5607158e-06,5.885746e-10,9.562646e-13,5.3201835e-12
1082,0.99974436,0.00025459658,1.867024e-11,1.1182634e-06,1.04542165e-11
1083,0.9998098,0.00018501509,4.249241e-06,9.723201e-07,8.721658e-09
1084,0.9999149,7.472379e-05,7.1211446e-08,1.0331416e-05,4.0280057e-11
1085,0.9013118,0.057466954,0.02810973,0.0086417645,0.0044697723
1086,0.99997413,2.550061e-05,2.4688757e-07,1.5219764e-07,7.7592696e-11
1087,0.99895775,0.0010333505,5.480368e-06,3.4999136e-06,2.2809214e-08
1088,0.9998863,1.9573787e-05,2.4174547e-09,9.4124036e-05,1.3440035e-08
1089,0.99971884,8.74145e-05,0.0001907892,2.9416478e-06,4.1347338e-08
1090,0.99999225,3.620474e-07,1.0124431e-09,7.3870738e-06,1.05808626e-10
1091,0.9995733,2.8759881e-05,0.00024697336,0.00015038233,5.6324416e-07
1092,0.9999956,4.241556e-06,1.2213606e-08,1.4719804e-07,2.2456988e-11
1093,0.99975866,6.439359e-05,0.00017541808,1.0713483e-06,4.5654133e-07
1094,0.9955716,1.9019544e-05,1.2543708e-06,0.0044079907,1.2999226e-07
1095,0.99999976,2.3712938e-07,2.7843934e-12,1.8899452e-13,5.1721272e-14
1096,0.99999475,1.1548492e-06,3.6627362e-06,4.0518574e-07,5.2791473e-09
1097,0.99999976,2.7187926e-07,2.7884487e-12,2.0883588e-13,6.0922536e-15
1098,0.9999988,1.1441786e-06,1.3129922e-12,1.5747849e-09,1.1826545e-15
1099,0.971314,0.023213595,0.00242406,0.0029235254,0.00012466352
1100,0.9998709,6.9481407e-06,1.8753387e-06,0.000120311044,3.5181267e-09
1101,0.9998795,1.9126068e-05,4.5313246e-08,0.00010136492,1.1160539e-09
1102,0.99989045,0.0001010749,7.657748e-06,8.427062e-07,3.4932096e-08
1103,0.94417346,0.04907387,0.0019548563,0.0047400193,5.7811794e-05
1104,0.99999404,9.4238004e-07,1.8835356e-06,3.1454967e-06,4.56001e-10
1105,0.99648994,0.003490697,4.60257e-06,1.4115666e-05,5.910366e-07
1106,0.99999917,6.8558785e-07,5.309594e-10,1.465924e-07,2.2784594e-10
1107,0.99859947,0.0012131623,4.193276e-06,0.00018319506,2.7137272e-09
1108,0.9999995,4.6523317e-07,1.1461997e-10,2.9742566e-11,2.0346435e-12
1109,0.9999391,5.9475675e-05,3.283542e-08,1.3589315e-06,6.6836424e-13
1110,0.9998536,0.00010892897,2.2229922e-06,3.523274e-05,8.150653e-10
1111,0.99863166,0.0012649216,9.516508e-06,9.13776e-05,2.5465295e-06
1112,0.99853504,0.001434486,1.6364676e-06,2.886711e-05,2.2859455e-10
1113,0.999995,4.747045e-06,2.4254098e-07,1.4090912e-09,5.006634e-12
1114,0.9999933,6.220914e-06,4.1558337e-07,6.505342e-09,2.5763375e-10
1115,0.99999857,1.4187397e-06,2.190088e-15,1.7127666e-10,2.891817e-14
1116,0.9998708,0.00012561034,2.1438749e-09,3.59303e-06,1.7050228e-09
1117,0.9995142,0.00010890364,0.00021500596,0.00015621788,5.59355e-06
1118,0.9996909,0.00029246372,1.2435432e-06,1.548476e-05,1.0117625e-11
1119,0.999938,3.9594706e-05,4.760538e-08,2.2364355e-05,2.6729344e-10
1120,0.99996233,3.1718588e-05,5.889717e-06,3.3233896e-08,1.1783511e-08
1121,0.013313122,0.9862118,0.00047366248,1.4457618e-06,4.396831e-11
1122,0.99999666,1.5670505e-06,4.2789412e-07,1.3344118e-06,9.098469e-10
1123,0.9997309,4.518365e-05,2.4209734e-05,0.0001996808,8.8126645e-10
1124,0.9999752,2.4374523e-05,6.0122645e-09,4.879767e-07,2.9281252e-10
1125,0.9999683,3.1736443e-05,1.8777922e-12,5.599139e-08,1.4572492e-09
1126,0.99956983,0.00040974733,1.9449191e-05,9.681077e-07,8.116896e-10
1127,0.99945384,0.00046572735,2.0033463e-05,4.7474026e-05,1.28584325e-05
1128,0.9994229,0.0005636998,4.787635e-08,1.3329386e-05,1.0256755e-07
1129,0.99995303,4.1032894e-05,8.4107235e-08,5.9237477e-06,1.078884e-10
1130,0.9990152,0.00089687074,7.6143835e-05,6.6486173e-06,5.1109755e-06
1131,0.9970394,4.9733935e-05,1.2011126e-06,0.0029095358,1.4027002e-07
1132,0.99763834,0.0023615763,1.2857512e-08,6.194502e-08,3.3101902e-10
1133,0.9999937,4.004275e-06,1.8234138e-09,2.2413694e-06,2.3034966e-11
1134,0.9999963,2.0068157e-06,2.4090358e-08,1.6011851e-06,6.989911e-11
1135,0.999882,0.00011445175,5.6916182e-08,3.525066e-06,2.0258344e-09
1136,0.99974245,0.00017011834,3.3049457e-06,8.4223604e-05,3.9567388e-10
1137,0.99771655,0.0022826688,1.777583e-09,6.0708373e-07,2.746461e-07
1138,0.9999685,3.1399573e-05,9.6142756e-08,3.8079815e-09,2.8191158e-12
1139,0.995612,0.004174499,1.8038581e-05,0.00019530984,2.4500737e-09
1140,0.999724,0.00027247245,2.7447202e-06,8.1898264e-07,3.6457346e-09
1141,0.9999912,8.180426e-06,3.6661422e-07,7.799923e-08,1.4126691e-07
1142,0.99999535,4.6345967e-06,1.3449443e-13,9.586897e-09,1.4180862e-13
1143,0.94234484,0.028425293,0.019196298,0.0005689004,0.009464595
1144,0.9999896,1.0211074e-05,7.4098048e-09,7.669324e-08,3.333628e-14
1145,0.9959781,0.0010753066,0.0003354771,0.00255059,6.038919e-05
1146,0.9998418,0.00013479668,7.2686184e-08,2.3243812e-05,8.716428e-10
1147,0.99908435,0.0009155911,3.745422e-13,1.4879936e-10,1.7498829e-11
1148,0.99991393,2.887749e-05,1.3165277e-05,4.3948843e-05,6.26436e-08
1149,0.9953721,0.0043799193,6.661769e-06,0.00024133634,8.164699e-10
1150,0.9992275,0.0007373714,9.872502e-06,2.5296009e-05,3.3442866e-09
1151,0.9932816,0.006708072,5.604082e-07,9.774807e-06,3.2920372e-08
1152,0.99995863,3.950768e-05,1.1190013e-08,1.9066231e-06,5.9979164e-09
1153,0.9999982,9.225161e-07,1.1197074e-12,8.204739e-07,1.1326086e-11
1154,0.99967647,0.00032288968,8.028652e-10,7.222867e-07,1.4753776e-09
1155,0.99887353,0.0005965214,8.4044206e-07,0.0005088629,2.0076803e-05
1156,0.999843,2.748674e-05,1.1832614e-05,0.00011749287,1.3288232e-07
1157,0.9974886,0.002208535,0.0002506739,2.0402775e-05,3.1750056e-05
1158,0.99985707,0.00011378721,2.0442601e-05,7.769043e-06,8.77121e-07
1159,0.99994266,5.6512003e-05,8.0659413e-07,8.173193e-09,2.5693735e-12
1160,0.99994934,5.0694583e-05,1.981118e-15,1.3755831e-10,2.4817764e-11
1161,0.9901867,0.00866414,0.0006268164,0.0005212493,1.1985862e-06
1162,0.9677257,8.6231834e-05,1.4776648e-05,0.032171313,2.0804266e-06
1163,0.99999034,9.651418e-06,9.7634665e-09,4.9415863e-08,1.6388148e-10
1164,0.9879105,0.004936206,0.0067817713,0.0001651689,0.00020635112
1165,0.9998727,0.00012586839,1.0906768e-07,1.3632155e-06,4.187717e-12
1166,0.9999913,7.677797e-06,7.943409e-08,9.7892e-07,1.2150336e-11
1167,0.99961394,0.00032904765,5.8429134e-07,5.623701e-05,2.931223e-07
1168,0.9999567,4.015958e-05,5.58552e-07,2.5300526e-06,1.1299346e-09
1169,0.9988695,0.0011178218,1.8209221e-06,1.0838669e-05,4.248106e-09
1170,0.9997323,0.00022897152,2.3142046e-07,3.7687547e-05,8.4578835e-07
1171,0.9974688,0.0025273436,2.838248e-07,3.5734727e-06,4.0635593e-09
1172,0.9344459,0.065538935,9.879032e-06,5.3058284e-06,1.0031221e-08
1173,0.995426,0.0044382038,8.098549e-06,0.00012773441,4.7516647e-08
1174,0.9999982,5.078983e-07,5.998583e-07,6.7729235e-07,4.9540305e-10
1175,0.9999995,4.4302564e-07,6.8393025e-10,5.466894e-08,1.5224315e-11
1176,0.97154117,0.028440986,6.6133493e-06,1.1270701e-05,1.4551955e-09
1177,0.99821186,0.0017379844,1.6322265e-05,3.3879176e-05,7.1618316e-09
1178,0.99994874,4.551335e-05,5.663328e-06,9.5293764e-08,4.4668823e-08
1179,0.9999666,3.303205e-05,2.739436e-08,2.899284e-07,5.7730394e-13
1180,1.0,7.484154e-09,4.237122e-18,9.276901e-15,1.8125582e-20
1181,0.99995065,4.8701684e-05,2.5765702e-11,6.1929313e-07,1.1605337e-08
1182,0.99996936,2.1428517e-05,3.6699365e-08,9.106902e-06,1.4210182e-11
1183,0.9997718,0.00021783171,6.123473e-06,4.283239e-06,5.206967e-09
1184,1.0,1.8943497e-08,1.2856513e-17,3.8714817e-12,2.3259254e-19
1185,0.94174016,0.05823312,5.185273e-08,2.2926399e-05,3.6571541e-06
1186,0.9625664,0.0047779763,0.027127111,0.0021324318,0.0033962142
1187,0.99958473,0.0004068005,1.2046086e-06,7.291511e-06,3.1239892e-08
1188,0.99988186,0.00011763647,3.7270604e-07,1.04457285e-07,4.8296107e-12
1189,0.9999815,1.8252638e-05,2.0720559e-07,5.6033908e-08,7.155156e-11
1190,0.9999579,4.1259354e-05,4.382882e-08,7.420255e-07,5.31799e-10
1191,0.99930596,0.0006712052,1.9057258e-06,2.0997268e-05,1.735546e-09
1192,0.96566474,0.011902876,0.015039136,1.9394392e-05,0.0073738242
1193,0.99994195,5.8020345e-05,1.9379476e-12,5.3540172e-09,5.8543074e-13
1194,0.99667645,0.0012848738,1.749496e-05,0.0020209432,2.397072e-07
1195,0.9999428,5.2373536e-05,4.480115e-06,3.7714105e-07,3.475433e-09
1196,0.9999962,3.4558393e-06,3.0449826e-07,1.7008767e-10,2.1040432e-10
1197,0.99983096,0.00016511076,5.038298e-07,3.4762534e-06,5.4400584e-10
1198,0.9998969,0.00010092414,1.2009968e-06,9.074059e-07,3.9754653e-08
1199,0.9997008,0.0002900163,7.87614e-06,1.1255725e-06,1.0844471e-07
1200,0.99999607,3.2995729e-06,6.733005e-09,5.69693e-07,8.52952e-12
1201,0.9999999,8.550633e-08,1.0421361e-12,1.0890432e-09,9.50157e-15
1202,0.9999821,1.7256836e-05,2.283381e-09,6.206353e-07,5.3230757e-12
1203,0.99998415,1.4094107e-05,5.9349384e-07,1.2456708e-06,7.923657e-10
1204,0.9999577,3.505324e-05,2.4476143e-09,7.1674544e-06,6.146571e-08
1205,0.99585223,0.004006657,7.003194e-05,6.938378e-05,1.7384604e-06
1206,0.9997254,0.00023705338,1.3154851e-05,2.4397874e-05,3.0785816e-09
1207,0.9967526,0.0021961352,1.0757168e-05,0.0010399338,4.7447688e-07
1208,0.99986684,0.000117963966,3.5352016e-07,1.4725366e-05,9.990578e-10
1209,0.9995704,0.0004294552,1.1373584e-09,6.24202e-08,5.727062e-11
1210,0.9996878,0.00029708794,2.2488777e-07,6.700237e-06,8.218882e-06
1211,0.9998099,0.00017896401,2.7376976e-07,1.0841944e-05,4.2367842e-11
1212,0.95988405,0.039808765,6.1615276e-05,0.00024510978,4.5360602e-07
1213,0.95786303,0.041321512,0.0008024112,1.2976425e-05,1.1415877e-07
1214,0.9991184,0.00069582975,6.574658e-06,0.00017926218,1.7129032e-08
1215,0.9999995,4.789162e-07,3.609011e-18,4.4012277e-15,1.1869122e-16
1216,0.99995196,3.523449e-05,7.0854946e-07,1.2012217e-05,2.8427408e-08
1217,0.9999908,8.337162e-06,4.722353e-08,7.7060974e-07,9.08719e-11
1218,1.0,2.1625615e-08,1.6050188e-14,1.4853531e-08,6.860137e-12
1219,0.99888176,0.0011182396,1.0708522e-09,1.9956616e-08,1.4222268e-10
1220,0.9999989,1.0769784e-06,2.8054463e-13,1.7374951e-09,1.3934492e-15
1221,0.99997675,2.291294e-05,2.689463e-07,3.9355164e-08,1.4757384e-10
1222,0.9990947,0.00089676504,8.15387e-06,2.2177096e-07,1.8871062e-07
1223,0.99942374,6.862279e-05,5.5440934e-05,0.00045220304,1.8322098e-09
1224,0.9990245,0.00094070943,1.2221441e-06,3.3608005e-05,1.1996206e-08
1225,0.9992066,0.0007358761,4.5231285e-05,8.96254e-06,3.3397307e-06
1226,0.9999274,6.250943e-05,1.9404679e-08,1.0101826e-05,7.039512e-13
1227,0.9998105,6.10994e-05,4.361458e-07,0.00012792893,4.9784483e-09
1228,0.9993381,0.00065275765,1.7582326e-07,8.96702e-06,2.2776786e-10
1229,0.9999956,4.3616565e-06,3.2575024e-08,2.0207311e-09,4.2631402e-11
1230,0.9880073,0.0119622,1.2122865e-06,2.9268338e-05,3.440832e-10
1231,0.99994564,5.3416345e-05,9.595493e-09,9.728085e-07,3.030465e-11
1232,0.9643316,0.035664216,4.4980195e-07,3.6815704e-06,3.4233278e-08
1233,0.9999553,2.3601406e-05,9.332595e-09,6.5600084e-06,1.454956e-05
1234,0.99988663,0.00010940847,3.8776997e-07,3.5266696e-06,7.831648e-12
1235,0.99998915,9.445173e-06,8.142892e-08,1.4016682e-06,5.5887535e-09
1236,0.9628012,0.03281674,0.00072172633,0.0036565214,3.808003e-06
1237,0.9999852,1.590072e-07,2.955892e-10,1.4672072e-05,5.461992e-11
1238,0.9999894,1.0498899e-05,8.20048e-09,1.3826559e-07,4.0757645e-12
1239,0.9999672,3.132485e-05,1.3105279e-06,1.3709436e-07,1.7981835e-10
1240,0.9975062,0.002480278,2.9330144e-07,1.3275229e-05,2.7576505e-08
1241,0.999962,2.5652897e-05,1.232873e-05,4.2145917e-08,4.6304482e-08
1242,0.999944,3.5459252e-05,2.3281338e-08,2.0635163e-05,5.9262362e-08
1243,0.99961674,0.00018300781,1.2460472e-06,0.00019893063,1.754927e-08
1244,0.9999969,1.9752067e-06,9.684327e-07,4.6936286e-08,1.1733904e-08
1245,0.9943751,0.0047030025,4.6094e-05,0.000875636,7.869804e-08
1246,0.99999714,9.874389e-08,9.1305255e-11,2.7508509e-06,7.560139e-14
1247,0.999997,3.0260483e-06,1.3651542e-10,4.885475e-11,1.0475478e-12
1248,0.9999114,8.76047e-05,2.2353973e-07,6.90762e-07,4.8642534e-09
1249,0.99938893,0.0005745209,1.5941845e-05,2.0594543e-05,1.9899986e-08
1250,0.99997354,2.627795e-05,4.7404377e-08,2.1325003e-07,3.6329832e-12
1251,0.99998,1.7174357e-06,3.0565516e-08,1.8287215e-05,4.2399466e-11
1252,0.999358,0.00044198966,9.410561e-07,0.00019820528,8.6073896e-07
1253,0.99999523,4.000682e-06,2.9288836e-09,7.308909e-07,2.1785695e-11
1254,0.99999976,1.8871918e-07,2.0027454e-11,8.7356483e-10,1.10348925e-13
1255,0.99999166,7.890726e-06,5.4508064e-08,3.660687e-07,4.178895e-12
1256,0.9999167,7.915506e-05,1.3578872e-07,4.0698214e-06,1.3245906e-08
1257,0.9999778,1.8614168e-05,2.472438e-09,1.6614425e-06,1.8615971e-06
1258,0.9997663,0.00016625175,6.653555e-05,2.5213834e-07,7.5078515e-07
1259,0.9973144,0.0026621488,1.1188297e-05,1.1878436e-05,3.3599173e-07
1260,0.9999863,1.3494599e-05,8.7092e-09,2.7303105e-07,7.9384645e-11
1261,0.9997969,0.00020308065,1.6725209e-09,2.179624e-12,7.07752e-11
1262,0.9999685,3.0243478e-05,1.6474831e-07,1.0150513e-06,2.1799516e-09
1263,0.99968874,0.00029989754,8.1782986e-07,1.0444767e-05,9.167321e-10
1264,0.99962425,0.00037559783,1.5755467e-09,1.6565104e-07,3.584336e-11
1265,0.9999318,6.59335e-05,8.287783e-08,2.2293866e-06,5.869967e-10
1266,0.98090935,0.017465789,0.00025881498,0.0013612765,4.818071e-06
1267,0.9999491,3.554679e-05,1.3005754e-07,1.530027e-05,9.012079e-10
1268,0.9999956,3.3001e-06,3.2864953e-09,1.0950265e-06,4.721078e-12
1269,0.9999567,1.3328661e-05,2.1149697e-05,8.595189e-06,6.032189e-08
1270,0.99994445,5.3256364e-05,4.3291624e-07,1.8616839e-06,1.0647873e-10
1271,0.99978787,5.38856e-07,8.885845e-05,0.00012254376,1.6972457e-07
1272,0.99943775,0.00055952213,4.3665523e-07,2.3543196e-06,2.8049396e-11
1273,0.99998903,1.1007365e-05,1.0129402e-09,1.8608633e-08,8.202679e-10
1274,0.9999622,3.559244e-05,1.8159336e-06,2.7805277e-07,4.431971e-11
1275,0.99997115,1.4139685e-05,1.3502828e-05,1.145634e-06,2.4655697e-09
1276,0.99980205,0.00014620746,5.5638753e-07,4.1919906e-05,9.254379e-06
1277,0.99912447,0.00021296507,0.00062196894,1.4694603e-05,2.5942649e-05
1278,0.9999186,6.965965e-05,4.0128658e-08,1.1741476e-05,9.421187e-10
1279,0.99995553,4.307174e-05,6.7770986e-07,7.882276e-07,3.1404193e-09
1280,0.99998367,1.2531896e-05,5.531879e-09,3.8405624e-06,1.2323933e-12
1281,0.9993813,9.919114e-05,0.00014688146,0.00037078452,1.7319295e-06
1282,0.99920076,0.0007599865,1.5316947e-06,3.7726397e-05,1.3866248e-09
1283,0.99985313,0.00012373117,2.0456005e-06,2.106273e-05,4.8084035e-09
1284,0.99960583,0.00023266033,1.0405874e-05,0.00015114655,2.2350855e-08
1285,0.99840456,0.0015256281,4.78037e-05,2.1865726e-05,2.0949557e-07
1286,0.98327315,0.0019126133,0.01177571,0.0027620476,0.00027655426
1287,0.99885094,0.0011406142,1.5288531e-06,6.977177e-06,1.0532956e-08
1288,0.9999995,5.101631e-07,4.247223e-08,1.1598102e-10,1.0853086e-12
1289,0.99999845,1.41731e-06,1.5219683e-07,7.420969e-10,3.9469695e-11
1290,0.99998,1.998545e-05,1.1674762e-13,6.5097976e-09,4.458369e-10
1291,0.99973494,0.00017429152,3.065931e-05,6.019001e-05,4.448304e-08
1292,0.9998658,0.00013132113,7.5998105e-07,2.008499e-06,1.32704e-07
1293,0.9641845,0.03275457,2.869716e-06,7.755468e-05,0.0029803938
1294,0.9999999,1.5028282e-07,1.5091869e-12,1.3507658e-09,3.0806646e-14
1295,0.99972504,0.00019031318,3.8195394e-05,4.6143366e-05,2.2214337e-07
1296,0.9999467,3.061516e-07,1.3967103e-08,5.285852e-05,5.4747148e-11
1297,0.99657613,0.0033941749,6.0675397e-06,2.3528022e-05,1.3009834e-07
1298,0.9999963,3.6536537e-06,1.9962991e-09,2.6938025e-11,5.480817e-11
1299,0.9999999,1.4534301e-07,1.2242229e-12,4.0525574e-13,7.070135e-14
1300,0.9996551,0.00027541304,4.3460215e-05,2.5971878e-05,3.641418e-09
1301,0.99998987,4.1323974e-06,2.8681895e-09,5.9212043e-06,2.4411878e-10
1302,0.9999728,2.719713e-05,1.1739703e-13,1.6446298e-09,1.4669465e-13
1303,0.9999894,5.6793297e-06,1.8346086e-08,4.8273355e-06,2.7151403e-10
1304,0.9975304,0.0024100118,6.153531e-06,5.2911324e-05,5.061841e-07
1305,0.9995147,0.00048367953,7.656724e-08,1.5642725e-06,4.0850674e-11
1306,0.99914765,0.0008407899,4.6798874e-07,1.1033107e-05,2.2070905e-08
1307,0.9999491,4.924853e-05,6.636066e-08,1.657236e-06,2.4730341e-11
1308,0.9998528,0.00014520355,2.793021e-08,2.0190434e-06,2.2239242e-09
1309,0.9999558,4.0432617e-05,9.0540496e-08,3.6926574e-06,2.4315647e-10
1310,0.99998367,1.6060074e-05,7.4727495e-09,2.8933425e-07,1.7780955e-12
1311,0.9999422,5.5691682e-05,1.980491e-08,2.1423102e-06,1.6088731e-11
1312,0.99998045,8.787804e-06,2.6718016e-08,1.0746341e-05,7.327791e-11
1313,0.9998362,0.00014602016,1.7980273e-06,1.5986518e-05,2.02786e-09
1314,0.97346413,0.015902303,0.0002874078,0.010344969,1.2076483e-06
1315,0.998588,0.0013948088,7.2817016e-07,1.6463171e-05,1.2198533e-08
1316,0.9999521,4.793267e-05,4.959261e-08,1.7318124e-09,3.298584e-10
1317,0.9997316,0.00026840938,4.1171072e-10,1.1380306e-12,2.291252e-11
1318,0.99992573,6.0809794e-05,1.1367554e-05,2.0815826e-06,1.3301744e-09
1319,0.99996805,2.9920036e-05,7.664614e-07,1.188716e-06,1.7044752e-07
1320,0.99998176,1.2332549e-05,3.010361e-06,2.9298603e-06,2.9317282e-09
1321,0.99981457,0.00015273465,6.8874647e-06,2.591478e-05,3.5569128e-09
1322,0.99994564,3.0371926e-05,5.335237e-06,1.8599905e-05,7.578652e-09
1323,0.9998369,6.44902e-05,1.0291376e-05,8.828427e-05,8.454965e-10
1324,0.9994288,0.0005469379,5.756272e-07,2.3586754e-05,3.3191558e-10
1325,0.9999999,1.2925841e-07,7.0569866e-14,1.6041092e-11,2.8875295e-16
1326,0.9999964,3.5553064e-06,7.5935613e-10,5.0723754e-09,8.667844e-12
1327,0.99937785,0.0006220496,4.7575127e-10,9.669268e-08,1.0697158e-09
1328,0.99724364,0.0017924869,0.000618779,0.00034484247,1.7876845e-07
1329,0.9999007,9.803616e-05,5.1757587e-07,8.321521e-07,3.6523826e-11
1330,0.99992347,7.5289885e-05,1.0847122e-06,7.933648e-08,9.874677e-12
1331,0.9991334,0.00085519673,1.0105512e-06,1.0403454e-05,8.263974e-10
1332,0.9999902,9.624908e-06,2.0918044e-08,4.9547612e-08,2.5109314e-08
1333,0.9996332,0.0003362404,2.2633683e-05,7.856748e-06,6.246053e-09
1334,0.99999976,1.11572746e-07,1.5052224e-12,1.341227e-07,2.51702e-09
1335,0.9999957,2.5175082e-06,7.7173286e-07,1.0468115e-06,3.7696088e-10
1336,0.99996877,3.0494963e-05,3.0591476e-08,6.358855e-07,9.45758e-10
1337,0.9998553,0.00014026815,1.04180934e-07,4.31409e-06,3.811092e-11
1338,0.9996464,0.00029964786,1.6951699e-05,3.548963e-05,1.4590182e-06
1339,0.98994726,0.00019490547,1.740236e-05,0.009836073,4.387527e-06
1340,0.9999107,7.851727e-05,1.0331383e-05,3.4433114e-07,6.567859e-10
1341,0.9996068,0.00034907556,2.6591132e-07,4.3934e-05,5.9374845e-08
1342,0.99942446,0.0005708996,2.5960376e-06,2.0403288e-06,2.133623e-09
1343,0.9999385,5.7103305e-05,2.919926e-06,1.5129189e-06,7.967384e-09
1344,0.99726874,0.0005199014,0.0015366036,0.0006573862,1.7316252e-05
1345,0.99987257,0.00012407081,2.010708e-07,3.1942714e-06,1.2513789e-10
1346,0.99999917,8.029985e-07,3.1045122e-09,6.143489e-11,3.290937e-12
1347,0.9993279,0.0006720222,1.4180186e-09,1.7300137e-07,9.338306e-10
1348,0.9998797,1.1213792e-05,0.00010834758,4.45615e-08,7.66249e-07
1349,0.9991831,0.00079109037,1.4293661e-06,2.4271534e-05,4.991733e-08
1350,0.99999774,8.4711735e-07,7.862243e-12,1.3964659e-06,2.9222047e-10
1351,0.9999913,1.7593725e-06,1.8539415e-08,6.9279154e-06,9.34961e-16
1352,1.0,3.0094828e-08,4.1793243e-14,3.4910007e-12,3.956461e-17
1353,0.99984574,0.0001507006,6.2958935e-07,2.9287914e-06,7.700432e-09
1354,0.9999964,1.1459787e-06,1.4654656e-09,1.4336201e-06,9.721028e-07
1355,0.999907,9.1466114e-05,1.6953108e-09,1.4962828e-06,9.436185e-10
1356,0.99996316,2.2214757e-05,1.4591165e-05,9.437139e-08,4.1770633e-08
1357,0.99975485,0.00023807878,2.2030786e-06,4.833905e-06,6.372216e-10
1358,0.99998724,1.2802275e-05,2.2700082e-10,5.5626317e-14,1.8013013e-11
1359,0.99871206,0.0011210369,0.00012289594,4.3984517e-05,1.8639149e-08
1360,0.9982054,0.001785999,5.8407267e-07,7.947006e-06,2.677702e-08
1361,0.9902513,0.009748402,1.9798317e-07,6.077917e-08,6.229529e-09
1362,0.99997616,2.3353707e-05,1.9733639e-08,4.4587884e-07,4.0978986e-14
1363,0.9993493,0.0006507471,2.6286275e-09,3.935058e-08,9.153477e-11
1364,0.9999715,3.9591765e-07,1.7062586e-09,2.8077899e-05,1.2228538e-11
1365,0.9974269,0.0024785604,6.1770304e-05,3.2711305e-05,4.0231193e-08
1366,1.0,3.4559807e-08,1.05200144e-13,5.4891885e-10,1.4184708e-14
1367,0.99999225,2.851036e-06,7.256319e-07,4.194258e-06,1.0360691e-09
1368,0.9999039,7.8601246e-05,4.294776e-06,1.32342175e-05,7.9704626e-10
1369,0.99991536,1.9099482e-05,2.167693e-08,6.506467e-05,4.8172683e-07
1370,0.9998883,0.00010893806,2.699626e-06,6.120222e-08,2.6585718e-09
1371,0.9999646,2.1372027e-05,1.8462462e-07,1.39098165e-05,5.9166055e-10
1372,0.9999999,8.143399e-08,6.658086e-11,1.4518123e-14,1.4975535e-12
1373,0.9809559,0.019020297,6.1354185e-06,1.7733388e-05,1.7229512e-08
1374,0.9998367,0.0001599274,6.696322e-08,3.3281133e-06,3.521971e-11
1375,0.99997485,2.199357e-05,1.0903062e-06,1.9758e-06,2.047272e-12
1376,0.999828,0.00015430973,6.823714e-06,1.0767681e-05,2.3099332e-08
1377,0.99995136,4.8082158e-05,1.1385995e-09,5.84589e-07,5.63039e-12
1378,0.99914336,0.0008556528,8.926374e-07,8.128389e-08,9.335406e-10
1379,0.9999603,3.9454764e-05,4.0911065e-08,1.6839427e-07,6.788763e-14
1380,0.9999958,2.9389964e-06,8.3321317e-10,1.2127858e-06,1.6690451e-09
1381,0.9999982,4.503722e-07,7.035181e-07,6.562245e-07,9.0451896e-10
1382,0.9999995,4.9132086e-07,2.3713678e-09,3.0782935e-12,7.486605e-13
1383,0.99920326,0.0007427441,4.3150958e-05,8.799122e-06,1.9841473e-06
1384,0.99998224,1.6870095e-05,2.0791783e-08,7.831542e-07,3.9621062e-10
1385,0.99986136,0.00013628154,2.5699504e-07,2.1510339e-06,2.633267e-09
1386,0.99999833,3.2968234e-07,6.9405917e-07,6.565789e-07,5.938683e-10
1387,0.9969024,0.0030902848,3.9432624e-07,6.885517e-06,7.580311e-10
1388,0.9999826,4.305042e-06,1.1435845e-05,1.4718919e-06,2.3323273e-07
1389,0.9986528,0.0013144168,3.058546e-07,3.2429733e-05,1.4857355e-09
1390,0.99995637,9.59746e-06,6.117849e-08,3.3863667e-05,1.0615337e-09
1391,0.9997645,0.00022724182,3.8909924e-08,8.170487e-06,1.6393417e-10
1392,0.9997923,0.00020199534,3.6160338e-07,5.3749295e-06,7.996733e-11
1393,0.99755055,0.0023020678,1.2617207e-06,0.0001414248,4.663034e-06
1394,0.9660672,0.03386637,1.691625e-05,4.9123268e-05,5.09577e-07
1395,0.99999833,7.9343073e-07,5.326694e-09,8.2513503e-07,3.9950643e-11
1396,0.99942774,0.00055590755,2.5957712e-08,1.6286695e-05,1.2512578e-08
1397,0.9998827,0.0001115522,4.2480661e-07,5.2920977e-06,3.3147798e-09
1398,0.9999962,3.8134315e-06,1.3057782e-09,2.1921716e-12,2.1799767e-11
1399,0.99912196,0.00084102363,9.825588e-06,2.7054597e-05,1.5866779e-07
1400,0.9921948,4.3557196e-05,2.2741208e-06,0.007758944,4.870927e-07
1401,0.9993561,0.0005754413,5.9960153e-06,6.2459956e-05,2.7688827e-09
1402,0.99984217,0.00015345078,1.0155882e-06,3.3755903e-06,8.125913e-09
1403,0.99997497,2.0722755e-05,3.0425274e-06,1.3041582e-06,2.8665825e-09
1404,0.99975556,0.00022290388,1.4923925e-06,2.0102065e-05,1.9100581e-09
1405,0.9999852,1.1608324e-05,2.3931907e-08,3.21006e-06,9.416875e-10
1406,0.99989724,4.722963e-05,4.7865677e-05,7.69132e-06,3.792209e-08
1407,0.99998033,2.5519732e-06,1.69886e-05,2.3430499e-07,1.6228801e-08
1408,0.99997604,1.01104715e-05,3.201612e-07,1.3552227e-05,1.5480802e-09
1409,0.9999025,9.5679425e-05,3.034754e-07,1.4521142e-06,4.3495862e-12
1410,0.9999863,1.3732204e-05,2.028674e-14,9.740584e-13,1.1474865e-13
1411,0.99931014,0.0006890197,2.5458997e-09,3.3473233e-07,4.794682e-07
1412,0.99993825,1.0924057e-05,9.212366e-06,4.152016e-05,2.8954033e-12
1413,0.99999964,3.3991486e-07,2.6528571e-11,8.1416677e-13,5.409717e-13
1414,0.99075437,0.007995706,0.0005098935,0.00073984836,2.3251171e-07
1415,0.9995499,0.00022138328,1.9467416e-05,0.00020920386,4.0348097e-10
1416,0.9999995,3.124396e-07,1.6201934e-11,1.6751093e-07,6.041966e-13
1417,0.9999436,5.305704e-05,2.8249827e-08,3.3658287e-06,3.1107933e-10
1418,0.9997528,0.00023275669,6.813194e-06,7.5525013e-06,4.455166e-09
1419,0.99986863,0.00013030911,8.11853e-07,2.9220772e-07,3.570857e-09
1420,0.99999094,1.9419076e-06,1.4314591e-08,7.1277336e-06,1.1602024e-11
1421,0.99998415,1.4869092e-05,1.2536127e-08,9.96206e-07,1.542486e-10
1422,0.99981016,0.00015839226,1.5001805e-07,3.1309028e-05,1.4411705e-09
1423,0.99999917,2.3741661e-07,1.2764418e-12,5.6694415e-07,2.0014648e-11
1424,0.9868721,7.5301046e-05,9.417225e-06,0.0130419135,1.3430393e-06
1425,0.9999771,2.1770435e-05,4.430387e-08,1.0178343e-06,9.852044e-09
1426,0.9999958,4.188793e-06,1.5648641e-08,8.459418e-11,1.2413935e-10
1427,0.9999089,8.9620815e-05,1.1254971e-07,1.3424008e-06,4.4125567e-10
1428,0.9999802,1.8855719e-05,7.609971e-09,9.875525e-07,1.0654922e-09
1429,0.9950163,0.00021383438,0.0008086393,0.003960514,7.699154e-07
1430,0.97566,0.00042795166,0.023782128,0.00011849486,1.1423401e-05
1431,0.9986291,0.0013705697,5.2668797e-10,3.0716504e-07,6.7503847e-10
1432,0.9214432,0.07773478,5.7839337e-05,0.000674843,8.935047e-05
1433,0.99998844,1.1425612e-05,9.2342605e-09,8.748281e-08,1.5199607e-10
1434,0.9995535,0.00023116657,5.3548738e-05,0.00016167281,7.8751825e-08
1435,0.9966395,0.0022395963,0.0010939712,1.52271905e-05,1.1730224e-05
1436,0.99988234,2.6458665e-05,1.3257263e-05,7.792648e-05,1.5245347e-10
1437,0.9999999,7.280299e-08,9.989905e-14,8.222721e-11,9.864098e-16
1438,0.9999865,1.3080278e-05,1.3214045e-09,3.5727157e-07,1.6052361e-10
1439,0.9999864,5.2314695e-06,1.4922161e-08,8.349323e-06,4.1007694e-11
1440,0.99945325,0.00054672366,2.9866992e-10,4.9700027e-12,2.0293019e-11
1441,0.9990779,0.00092173624,6.4300654e-09,3.1903159e-07,5.4391247e-10
1442,0.9526621,0.012112328,0.025843114,9.460838e-06,0.009373072
1443,0.99961746,0.00037696573,1.5692718e-06,4.0373616e-06,9.340922e-10
1444,0.99954283,0.00012927523,9.459481e-07,0.00032700438,1.0157924e-08
1445,0.9999621,3.7456935e-05,1.9013238e-10,5.007031e-07,4.720047e-08
1446,0.9997514,0.00021483438,1.7352606e-05,1.6434555e-05,2.0553802e-10
1447,0.99975616,0.00023724478,2.77201e-07,6.3052644e-06,2.5974863e-08
1448,0.9993555,0.00057353656,5.043698e-05,2.00963e-05,4.9051823e-07
1449,0.99980026,3.0374666e-05,0.00016647173,2.8073075e-06,7.044868e-08
1450,0.9977191,0.0022747547,1.2626056e-06,4.8055717e-06,3.981123e-09
1451,0.99999046,1.7093229e-06,1.9556314e-08,7.875883e-06,3.7891965e-10
1452,0.99999654,3.4501502e-06,1.7499253e-10,2.986243e-10,4.3313156e-13
1453,0.99774665,0.0019544144,0.00026581873,3.2790424e-05,2.8981245e-07
1454,0.99972683,0.00023248221,3.6210397e-05,4.276092e-06,1.6839122e-07
1455,0.99983776,0.00015321936,1.2062097e-07,8.842216e-06,3.204925e-10
1456,0.9996946,0.00014412633,1.8846593e-07,0.00015952799,1.7018044e-06
1457,0.99981326,0.00016816481,1.0469696e-05,8.042412e-06,1.5532892e-07
1458,0.99998975,2.7028598e-06,1.4364755e-09,7.5145485e-06,1.248927e-09
1459,0.99821556,0.0017737879,1.003087e-06,9.664204e-06,5.0877573e-09
1460,0.9993536,0.0006372397,3.4488312e-07,8.883302e-06,3.861552e-10
1461,0.99995804,3.989536e-05,2.560337e-09,1.9752995e-06,7.4276683e-09
1462,0.9999968,6.3344646e-07,1.6186451e-10,2.6628784e-06,3.670306e-10
1463,0.9997583,0.00023724303,3.3414028e-06,9.492332e-07,6.697648e-08
1464,0.9998789,0.00011427548,6.228248e-07,6.1336914e-06,4.3217024e-10
1465,0.9999825,1.2968425e-05,1.6869881e-08,4.4666667e-06,8.28097e-11
1466,0.9998623,0.00012210422,1.5433232e-05,1.0099983e-07,8.842053e-08
1467,0.9997321,1.12368525e-05,0.00025660687,1.1266983e-09,1.2725204e-07
1468,0.99994445,4.4541677e-05,1.08517e-05,7.885493e-08,3.4683026e-08
1469,0.9999248,7.516322e-05,1.8213234e-10,1.5462065e-13,7.47953e-11
1470,0.9997166,0.00024239154,5.780184e-07,4.0431656e-05,1.2663151e-08
1471,0.9791048,0.00011281793,5.2932573e-06,0.020776495,4.138999e-07
1472,0.9997626,0.00015053121,3.310746e-05,5.3790132e-05,1.9333684e-09
1473,0.9990044,0.0009955297,5.8264056e-09,1.3069898e-07,1.6284796e-09
1474,0.9998994,5.9192036e-05,4.1348794e-05,4.868948e-09,2.6971119e-09
1475,0.9983708,0.0004295098,0.0010117362,0.00017449746,1.341472e-05
1476,0.9996228,0.000376799,3.12884e-10,3.9648756e-07,1.5494199e-10
1477,0.99999785,2.0132638e-06,1.3208574e-09,1.2617313e-07,1.0434325e-09
1478,0.9999727,3.1597497e-06,2.013668e-08,2.4036148e-05,3.34239e-10
1479,0.9999919,3.2378617e-07,1.8721105e-09,7.768572e-06,7.162221e-11
1480,0.9996934,0.00019065209,0.00010611783,9.892584e-06,8.661496e-09
1481,0.99999976,2.3889828e-07,1.9556943e-12,8.641552e-10,1.8854723e-14
1482,0.9998611,0.00013422292,5.9487826e-07,4.0059826e-06,6.7778996e-09
1483,0.99999166,5.543952e-06,3.6913545e-11,2.6839418e-06,1.1125338e-09
1484,0.9999987,2.2565882e-07,7.687843e-09,1.0311458e-06,7.2756586e-14
1485,0.9999957,4.118706e-06,3.940314e-09,6.8089825e-08,9.908843e-12
1486,0.99790335,0.0020182396,2.2109161e-05,5.6302706e-05,2.8298157e-08
1487,0.9986644,0.0012535347,5.0925315e-05,3.12648e-05,1.35549545e-08
1488,0.9998702,0.0001297582,5.306642e-10,3.8686764e-08,4.3893028e-10
1489,0.9998641,0.00012413983,1.6063024e-07,1.14914355e-05,2.009557e-10
1490,0.99950624,0.00041392478,7.687041e-05,2.964581e-06,4.8973905e-09
1491,0.9999989,9.856864e-07,1.445603e-09,1.1791401e-07,1.1916317e-13
1492,0.9986791,0.000814257,1.25611405e-05,0.00049309275,9.706973e-07
1493,0.9871202,0.011689225,0.00037362042,0.0007855427,3.1271666e-05
1494,0.9996885,0.00031137984,7.5568124e-10,1.2555707e-07,5.5416255e-10
1495,0.9992685,0.0007200917,1.1011744e-07,1.1280893e-05,4.5573884e-10
1496,0.99996495,3.4129916e-05,9.387745e-07,2.2589182e-10,4.3583748e-10
1497,0.9999993,7.4493e-07,3.7461964e-11,9.138799e-12,1.8220957e-13
1498,0.9998611,7.900324e-05,4.5505236e-05,1.4280033e-05,1.3014182e-08
1499,0.99991596,7.9933554e-05,2.0723894e-06,1.938879e-06,1.715907e-11
1500,0.9999918,1.8989232e-06,7.745958e-09,6.252559e-06,4.8898377e-12
1501,0.99997056,2.9400086e-05,1.995392e-08,2.0210514e-08,1.6637579e-10
1502,0.9990314,0.0009570978,5.756835e-06,5.670124e-06,2.2236438e-10
1503,0.9985189,0.0014734995,2.2638592e-07,7.4190552e-06,1.4555902e-08
1504,0.9820211,0.017663041,2.703926e-05,5.646645e-05,0.00023243138
1505,0.9933035,0.0060455306,7.731924e-05,0.00057372125,7.2945885e-09
1506,0.99998176,4.1084445e-06,1.3723122e-05,5.0898865e-07,2.4609408e-08
1507,0.9957491,4.4897635e-05,1.010216e-06,0.004204935,2.7785829e-08
1508,0.99997497,2.1483907e-05,1.6697848e-08,3.5051921e-06,1.2208556e-12
1509,0.99822134,0.0017782621,5.695397e-10,3.2464504e-07,3.9970596e-10
1510,0.979887,0.019474667,4.142373e-05,0.00059685536,1.4143342e-09
1511,0.99980944,5.2919095e-05,5.3379943e-05,8.4176485e-05,1.08318e-07
1512,0.9999895,1.01984015e-05,7.2892785e-09,2.3047619e-07,1.1175459e-14
1513,0.9999516,4.1521507e-05,1.7317317e-06,5.2013e-06,2.2229088e-10
1514,0.99996126,2.522823e-05,7.48471e-08,1.34236025e-05,4.7652854e-10
1515,0.9999919,8.116199e-06,1.9600173e-09,4.6568662e-08,1.3317664e-15
1516,0.9999856,1.23105865e-05,1.0627428e-07,1.9913407e-06,2.438419e-09
1517,0.99998105,1.8513989e-05,4.6500634e-07,2.952085e-08,3.000125e-11
1518,0.998005,0.000114782706,2.248363e-06,0.0018779096,9.277694e-08
1519,0.9999999,1.3633154e-07,3.4224224e-11,3.2447677e-15,3.0982632e-12
1520,0.99972385,1.3550941e-05,1.5120453e-07,0.0002623968,7.4360595e-10
1521,0.9991554,0.0008040437,3.5750134e-05,4.5533716e-06,2.9677415e-07
1522,0.9998425,0.00015741748,3.3799594e-08,9.345279e-12,4.1571093e-09
1523,0.99959236,0.00040763177,1.8727237e-08,6.7353173e-10,1.0131976e-08
1524,0.99999,5.5755063e-06,2.3601087e-06,2.0511964e-06,4.2841974e-10
1525,0.99414885,0.00012002649,5.9338395e-06,0.005724099,1.0721983e-06
1526,0.9999795,1.983706e-05,1.0715721e-07,5.61845e-07,7.7668476e-11
1527,0.99999845,1.5782553e-06,9.217133e-11,8.705842e-11,6.9887455e-13
1528,0.9999671,3.253745e-05,2.984171e-08,3.7820158e-07,9.9166564e-11
1529,0.9992648,0.00066690805,4.9868948e-05,1.8367225e-05,3.320463e-08
1530,0.9997917,0.00019574745,8.335974e-07,1.1704056e-05,9.766933e-08
1531,0.9993598,0.00059113366,2.4617935e-05,2.3951532e-05,4.9798456e-07
1532,0.99370486,0.0027128395,6.793444e-05,0.0035094067,5.0125805e-06
1533,0.99813277,0.0018669388,3.761657e-08,3.017742e-07,1.6209e-10
1534,0.99926466,3.9765968e-05,0.00068069,1.3841479e-05,1.0658123e-06
1535,0.999995,1.3517281e-07,5.417372e-10,4.841254e-06,2.8443216e-12
1536,0.99996316,1.8540108e-05,1.5743566e-05,2.192035e-06,3.0815792e-07
1537,0.99941707,0.0005422681,3.6341546e-05,4.320617e-06,2.3406571e-08
1538,0.9999988,1.1364401e-06,3.3250924e-10,3.311324e-08,1.8432656e-11
1539,0.99995685,3.641677e-05,1.8141791e-06,4.9296914e-06,5.831791e-10
1540,0.9998994,1.3463657e-05,4.260211e-05,2.2484988e-08,4.4407003e-05
1541,0.99595034,0.0037923947,2.7036702e-05,0.00023022655,1.5352833e-09
1542,0.99985206,0.00014219708,9.0290933e-07,4.859957e-06,1.2224339e-09
1543,0.999708,0.000291775,1.6825233e-10,2.154916e-07,6.1074285e-10
1544,0.9999999,6.466913e-08,1.0846717e-12,5.2415463e-14,1.8658046e-13
1545,0.99985766,0.00011209626,1.1914418e-07,3.0210955e-05,8.306237e-12
1546,0.99811363,0.0017349932,7.3173986e-05,7.815015e-05,3.893506e-08
1547,0.9998548,0.00013005392,2.2930749e-06,1.2820469e-05,4.832722e-09
1548,0.99994075,4.5641904e-05,5.577965e-06,8.051328e-06,8.46517e-10
1549,0.9986085,0.0011192345,0.00020413267,6.772961e-05,3.614461e-07
1550,0.9946287,0.0053638387,1.8252176e-06,5.59767e-06,1.1004195e-09
1551,0.9999552,4.21301e-05,2.7442004e-08,2.6813957e-06,4.9243096e-11
1552,0.9999864,1.358201e-05,5.5249236e-09,1.729872e-08,6.188477e-11
1553,0.9510341,0.030078696,0.018381143,0.000261429,0.00024455934
1554,0.99990666,9.084357e-05,1.4767889e-07,2.4081583e-06,1.857995e-10
1555,0.9997181,0.00026939693,3.560223e-08,1.2312799e-05,9.6623105e-11
1556,0.99997616,2.250984e-05,4.5985358e-09,1.3243272e-06,1.7367829e-09
1557,0.9996917,0.00029752858,9.2934115e-06,1.445434e-06,3.7146689e-10
1558,0.99996996,2.783832e-05,2.1302599e-06,3.3273665e-08,1.0342438e-08
1559,0.97517157,0.024825167,2.681012e-06,5.8751414e-07,1.0401773e-08
1560,0.9999454,5.4645898e-05,4.0928522e-10,1.7907738e-08,4.6345348e-11
1561,0.9832012,0.00026348914,0.0034503834,5.6960075e-06,0.013079234
1562,0.9999956,1.8960884e-07,3.524392e-11,4.204861e-06,1.5556686e-11
1563,0.99993515,6.1600396e-05,9.938048e-09,3.2035534e-06,6.811975e-11
1564,0.99999833,1.2996246e-06,6.617152e-09,2.9428645e-07,1.0868917e-09
1565,0.9998355,0.00015879572,2.2807692e-06,4.7234483e-08,3.3401345e-06
1566,0.99999964,2.5485505e-07,5.711986e-11,1.2820992e-07,3.0787256e-14
1567,0.9998313,0.00016476274,3.7804155e-06,1.6137778e-07,6.904241e-11
1568,0.999713,0.00028281106,5.221843e-07,3.628783e-06,2.2836887e-10
1569,0.99995065,4.8597478e-05,8.266957e-08,6.678172e-07,2.3054252e-10
1570,0.9999933,5.7818534e-06,8.7712255e-07,3.9681552e-10,5.048134e-09
1571,0.99903536,0.0009306812,7.074751e-06,2.684521e-05,1.4418437e-08
1572,0.999884,0.0001147242,1.0223144e-06,2.417622e-07,2.3123186e-09
1573,0.9993376,0.00066072744,7.040188e-07,9.887362e-07,1.6151692e-08
1574,0.9999989,4.655067e-07,9.7668314e-12,5.4821805e-07,4.0577163e-11
1575,0.99668026,0.0032938975,1.6703677e-07,2.5068472e-05,6.806919e-07
1576,0.9999999,6.4799885e-08,2.7845053e-12,2.4919994e-12,1.5044921e-14
1577,0.99999905,1.0126081e-06,1.2091385e-11,2.6284008e-09,1.12097645e-14
1578,0.9547389,0.00010673037,0.03810113,1.50965125e-05,0.0070381043
1579,0.99990785,8.507791e-05,6.9684784e-06,6.247343e-08,2.61564e-08
1580,0.99991155,8.666577e-05,3.585768e-08,1.7656714e-06,2.1868382e-11
1581,0.9999541,3.3635206e-05,3.6926156e-08,1.22693655e-05,2.7336564e-11
1582,0.999196,0.00075416354,2.022945e-05,2.9531891e-05,1.0292991e-07
1583,0.9915667,0.008350761,2.0567459e-06,8.045412e-05,7.764856e-11
1584,0.9999862,1.1667825e-05,4.3102332e-08,2.0826851e-06,2.6319572e-10
1585,0.9999808,1.7636692e-05,1.6927103e-07,1.3965355e-06,5.1066845e-11
1586,0.9992192,0.0003435312,1.3851114e-06,0.00043575658,9.770224e-08
1587,0.9994247,0.00054947025,1.6177311e-05,9.664383e-06,1.254736e-08
1588,0.9998627,9.865725e-05,1.9365112e-05,1.9149782e-05,7.449607e-08
1589,0.99974304,3.2225304e-05,2.0070398e-05,0.00020445211,2.1319335e-07
1590,0.99998736,1.0652897e-05,2.4474502e-08,2.0600382e-06,8.6172014e-10
1591,0.9999324,1.5528125e-05,5.1770927e-05,5.8058948e-08,2.754969e-07
1592,0.9991122,0.0008688259,1.6949056e-05,1.5942728e-06,3.4345524e-07
1593,0.9999987,8.7435495e-08,9.6149876e-08,1.1477938e-06,3.332061e-11
1594,0.99999094,2.6393097e-06,5.9343483e-06,2.4310308e-08,5.2369415e-07
1595,0.99999857,1.387901e-06,8.384793e-11,5.2881537e-14,7.067298e-13
1596,0.99999905,9.818914e-07,1.0889227e-15,1.1617574e-11,4.7836122e-15
1597,0.99986064,0.0001329068,2.4510499e-08,6.4395513e-06,1.9514187e-10
1598,0.9999336,6.233629e-05,5.8162538e-08,3.9769157e-06,6.5203654e-10
1599,0.999863,0.00013244503,1.8882082e-07,4.2748884e-06,1.49925e-07
1600,0.99999917,9.17623e-08,7.337368e-11,6.791927e-07,7.5060584e-14
1601,0.9983588,0.0015633362,7.3532115e-05,4.2583815e-06,4.551542e-08
1602,0.9953178,0.004681051,1.2637736e-09,1.2189549e-06,3.8346424e-09
1603,0.9987564,0.0012431531,2.2615414e-08,4.1177915e-07,7.1059575e-10
1604,0.99901986,0.0009801452,1.8679556e-09,5.0907524e-08,2.8703398e-10
1605,0.99997103,7.284013e-06,2.1055374e-05,2.0222566e-07,4.319561e-07
1606,0.9984962,0.00014899882,0.00033862737,0.0010005236,1.5558911e-05
1607,0.9998271,4.9124134e-05,1.7666742e-06,0.0001220914,2.0622196e-10
1608,0.99874985,0.0011358233,2.796192e-06,0.00011151872,5.173725e-08
1609,0.999948,2.881502e-06,2.7482663e-08,4.9132468e-05,2.3533656e-10
1610,0.9997975,0.00020009921,3.199534e-08,2.3595217e-06,7.3084766e-10
1611,0.99977607,0.00016332236,1.9382962e-07,6.0363152e-05,1.3195512e-07
1612,0.99996984,2.9911731e-05,1.1539369e-07,1.5470981e-07,4.829209e-11
1613,0.99998283,4.7622634e-06,2.7044823e-07,1.2093164e-05,2.748256e-09
1614,0.99449134,9.850441e-06,5.2783037e-07,0.005498349,5.8934937e-08
1615,0.99999964,4.0116933e-07,1.5760181e-09,5.022458e-12,1.4273218e-12
1616,0.9999968,2.9433888e-06,3.1766003e-12,2.8548513e-07,1.435199e-12
1617,0.99967206,0.00032431714,5.6704437e-08,3.6654214e-06,7.8102413e-10
1618,0.99998045,6.62993e-06,7.413625e-07,1.2121284e-05,4.7983417e-09
1619,0.9999403,3.1519598e-05,2.5788486e-08,2.8198983e-05,1.2624499e-12
1620,0.99999154,6.6301172e-06,1.3110392e-07,1.6505539e-06,1.0323273e-11
1621,0.99764675,0.0014447441,0.00087050657,3.5610814e-05,2.410464e-06
1622,0.99996674,3.3231554e-05,3.1233967e-11,1.5149842e-14,4.4513893e-12
1623,0.99523336,4.8138772e-05,2.4501128e-06,0.004715828,2.5334225e-07
1624,0.9999999,7.543706e-08,1.6067127e-10,1.2812963e-13,4.028607e-12
1625,0.9999552,4.1629464e-05,2.163339e-08,3.2178957e-06,2.0325245e-12
1626,0.9999999,8.425216e-08,2.7935913e-12,1.2676545e-09,5.0275722e-14
1627,0.9998109,0.00017762008,3.4091897e-07,1.1266303e-05,2.4070284e-11
1628,0.9999863,1.3676868e-05,3.8016283e-12,1.3028775e-08,5.915112e-09
1629,0.99645233,0.0031495842,0.00023141222,0.00016006787,6.5761265e-06
1630,0.8823586,0.036465853,0.009080426,0.072088815,6.3372236e-06
1631,0.99769324,1.6452026e-05,2.8657945e-07,0.0022900463,1.1843401e-08
1632,0.9996525,0.000345964,1.2288209e-06,3.4264193e-07,2.1385331e-11
1633,0.999951,4.556965e-05,3.3883412e-09,3.511207e-06,5.2056737e-10
1634,0.99999917,8.924329e-07,6.2481e-13,9.53798e-09,1.0404179e-15
1635,1.0,6.214471e-09,1.6190742e-13,4.8916537e-18,1.1061019e-14
1636,0.9998752,0.00012404878,4.1666855e-08,6.969091e-07,7.575217e-12
1637,0.99996567,2.81765e-05,5.367468e-07,5.7093666e-06,1.1666249e-09
1638,0.9997594,0.00022865388,3.765506e-10,1.1870754e-05,1.02549205e-08
1639,0.99984753,0.00015204573,2.3395816e-07,8.140869e-08,1.3824609e-09
1640,0.99991596,8.120463e-05,3.293508e-08,2.8771838e-06,3.023437e-10
1641,0.99999976,1.0098944e-07,2.3427654e-10,7.380377e-08,3.3429506e-11
1642,0.9999937,6.298546e-06,3.137244e-14,9.525965e-09,1.5009001e-10
1643,0.98718435,0.0009543135,0.0007070353,0.011139072,1.5285075e-05
1644,0.9843739,0.01525009,1.1887258e-05,0.00036219083,1.8620208e-06
1645,0.99999106,5.9309937e-06,8.6634856e-08,2.904432e-06,2.9990468e-10
1646,0.99986434,9.737336e-05,2.6285834e-05,1.2028978e-05,4.36348e-08
1647,0.99998844,1.0867401e-05,2.966725e-09,6.6497233e-07,3.136377e-11
1648,0.9999982,1.6720405e-06,4.0375906e-13,7.4911426e-08,1.3914686e-13
1649,0.99997234,4.8113097e-06,1.0325255e-08,2.2905915e-05,5.7153204e-10
1650,0.9986534,0.0013255175,1.5334268e-05,5.7258458e-06,4.0085915e-08
1651,0.9999795,8.193079e-06,8.640809e-06,3.3877002e-06,2.348054e-07
1652,0.9999429,5.3368334e-05,3.3621916e-08,3.6291501e-06,1.6152889e-10
1653,0.99999404,5.3559133e-06,2.6553675e-08,4.7375045e-07,1.0242202e-07
1654,0.99999905,8.35869e-07,6.3072896e-08,2.5750468e-09,1.2367929e-11
1655,0.99825495,0.0017413537,4.9844505e-07,3.171473e-06,6.1446304e-12
1656,0.99992454,2.8789858e-05,6.3734115e-07,4.601339e-05,3.5908643e-09
1657,0.99994934,3.5743757e-05,5.6658755e-06,9.2126875e-06,3.1434322e-09
1658,0.99998677,1.2122807e-05,4.6228678e-08,1.064608e-06,1.5068825e-13
1659,0.9999895,9.606779e-06,7.799211e-08,8.08498e-07,1.3393487e-12
1660,0.99998546,5.0989593e-06,2.448141e-08,9.416294e-06,1.4246139e-09
1661,0.99997604,2.1859913e-05,2.0340458e-07,1.9872523e-06,1.02637086e-10
1662,0.99889636,0.0010946087,5.691227e-06,3.3155093e-06,2.0974545e-08
1663,0.9915802,9.4884614e-05,1.0427244e-05,0.008314113,3.4018572e-07
1664,0.9999409,6.634183e-06,3.7291116e-05,5.6770095e-09,1.5081752e-05
1665,0.9999088,8.5017964e-05,2.572953e-06,3.6291717e-06,1.2526499e-09
1666,0.99816763,0.0018322354,8.821435e-10,8.8847834e-08,6.9776906e-10
1667,0.99998987,1.0181963e-05,1.7809068e-08,1.9540941e-08,3.0709835e-10
1668,0.999918,8.0743084e-05,1.3811543e-08,1.241304e-06,3.7597907e-12
1669,0.99899334,0.0009886416,1.1610891e-06,1.6783082e-05,4.1593323e-10
1670,0.9999975,1.3971241e-07,1.2615334e-11,2.4420285e-06,1.1967743e-11
1671,0.9996673,0.00033266036,2.1155785e-10,1.4921646e-07,2.580779e-10
1672,0.9997476,0.00025123078,1.0124894e-06,1.81975e-07,5.9467703e-10
1673,0.9998147,0.00017931647,3.1691602e-06,2.8742709e-06,1.8052077e-10
1674,0.746511,0.25334966,3.3178528e-06,0.00012997113,6.0160023e-06
1675,0.9997857,0.0001599955,3.56759e-07,5.402973e-05,3.268853e-09
1676,0.9996871,0.00029964748,2.9676843e-07,1.2983933e-05,1.339228e-07
1677,0.9999789,1.997426e-05,7.0927366e-09,1.1056485e-06,2.1337433e-10
1678,0.9997646,0.00014015647,9.449066e-05,6.518465e-07,6.180414e-08
1679,0.9941111,0.00039656548,2.9479065e-06,0.005489165,2.0127658e-07
1680,0.95547795,0.00010797368,4.0458403e-05,0.044370618,3.0032759e-06
1681,0.99996364,3.5897723e-05,1.8408049e-07,2.8099322e-07,3.3384504e-12
1682,0.9882609,0.008930893,0.0012150872,0.0015841906,8.879472e-06
1683,0.99999285,7.1694153e-06,2.7382114e-09,2.6350353e-09,1.1465042e-11
1684,0.9950722,0.0003153382,0.0046100854,1.2082499e-07,2.294005e-06
1685,0.9999769,2.295962e-05,2.9372902e-08,1.0570267e-07,9.188639e-15
1686,0.99992204,7.485099e-05,8.0872024e-07,2.2911913e-06,6.302264e-10
1687,0.999982,1.7484148e-05,2.2006029e-08,3.9583725e-07,1.146729e-09
1688,0.99994874,4.2141644e-05,5.9534553e-08,8.969068e-06,2.2040487e-09
1689,0.9989023,0.0010872089,5.0520517e-09,1.0520413e-05,5.364463e-08
1690,0.9999645,1.601888e-05,1.638775e-05,3.1014265e-06,6.668727e-08
1691,0.9999665,3.0464375e-05,6.750912e-09,2.9279106e-06,1.7047022e-12
1692,0.95265484,0.041323494,0.001709754,0.004311909,9.49846e-09
1693,0.9999726,2.250336e-05,3.5674315e-08,4.9059577e-06,2.7444362e-12
1694,0.9999851,1.4919774e-05,5.0313886e-08,6.491573e-11,1.5880704e-10
1695,0.9990482,0.000951588,8.491348e-10,1.9548986e-07,8.3409557e-10
1696,0.99945146,0.00053181016,1.0414516e-06,1.5665839e-05,1.9013109e-09
1697,0.99999964,3.6492133e-07,3.2584846e-12,5.599653e-09,6.9783106e-13
1698,0.9987791,0.001212672,1.3997518e-08,7.925847e-06,2.438561e-07
1699,0.99996936,4.8663594e-07,2.9817074e-05,3.3342207e-07,2.3341153e-08
1700,0.9979114,0.002054768,1.0005313e-05,2.3634258e-05,1.0335574e-07
1701,0.9993794,0.0006204639,1.2148827e-08,1.3079544e-07,5.5636e-10
1702,0.9998486,0.00014963097,1.1797727e-07,1.7031515e-06,2.6469866e-12
1703,0.9999999,1.3482973e-07,4.2079795e-12,3.2967615e-13,2.6944038e-14
1704,0.36412865,0.073861025,0.49033397,0.06255369,0.009122709
1705,0.9808461,5.156318e-05,6.4571514e-06,0.01909508,7.6459776e-07
1706,0.9996228,0.0003391144,2.7524253e-05,1.0535453e-05,4.70965e-09
1707,0.99989164,0.00010735509,2.0587311e-08,9.553559e-07,1.9768245e-12
1708,0.9945862,0.0045872307,0.000104458806,0.00072200486,3.6435026e-08
1709,0.999866,0.00012809706,6.0972805e-09,5.7556467e-06,7.167685e-08
1710,0.9999933,5.6398917e-06,1.9087214e-08,1.0572644e-06,8.804605e-11
1711,0.9985814,0.00141554,2.216456e-07,2.7492836e-06,7.05473e-08
1712,0.99349505,0.006494884,6.46439e-08,1.0045997e-05,7.671746e-09
1713,0.99999785,2.1630417e-06,6.7721856e-16,2.9590655e-10,1.9749616e-12
1714,0.99289095,0.0008966412,0.006028345,0.00014713885,3.690682e-05
1715,0.9998578,0.00013983001,6.329186e-08,2.3294301e-06,1.7124397e-11
1716,0.99998057,1.8866122e-05,4.8781186e-07,9.3354e-08,2.1986038e-11
1717,0.9986504,0.0013371359,1.340398e-06,1.1123342e-05,9.912259e-10
1718,0.99995756,4.1524134e-05,9.11212e-08,8.948033e-07,5.852117e-11
1719,0.9999932,2.505545e-06,3.343496e-07,3.9023935e-06,2.2194213e-10
1720,0.03856489,0.96139634,3.8695693e-05,3.1369957e-08,4.611078e-09
1721,0.99983466,9.516688e-05,3.482572e-07,6.9860165e-05,9.979977e-09
1722,0.9999995,4.1829975e-07,2.543353e-10,3.3043039e-12,3.1189845e-12
1723,0.9992113,0.00058687263,2.1507605e-05,0.00018029544,1.1976864e-08
1724,0.9999883,7.906616e-06,1.9479064e-08,3.764315e-06,6.192066e-11
1725,0.9998771,0.000114721326,2.8757208e-07,7.921722e-06,1.5619232e-08
1726,0.99993575,6.216153e-05,1.7071019e-06,3.8614718e-07,6.7035787e-12
1727,0.9990846,0.00070792716,1.0861716e-06,0.00020640004,1.6076412e-10
1728,0.999967,2.4311039e-05,5.9521106e-08,8.690459e-06,8.678304e-13
1729,0.99988663,8.697029e-05,2.3330667e-05,3.0050496e-06,4.129183e-09
1730,1.0,5.165923e-08,1.66952e-13,1.684537e-10,4.2053576e-15
1731,0.9999862,1.3864186e-05,2.0375708e-09,3.8851558e-09,8.9013085e-12
1732,0.9999901,9.096328e-06,4.8977054e-09,7.7175724e-07,4.199287e-12
1733,0.99989843,9.421858e-05,1.8128484e-08,7.2333814e-06,1.0780821e-07
1734,0.9996061,0.00039365538,3.512373e-10,2.107647e-07,5.959931e-09
1735,0.9998679,7.4734955e-05,5.5421056e-05,1.8824853e-07,1.6833463e-06
1736,0.9998828,0.000110344736,6.075486e-06,7.297008e-07,2.5276156e-10
1737,0.9999989,1.06686e-06,2.5490356e-12,3.4027217e-08,3.1363157e-14
1738,0.9908477,3.9824958e-05,5.484087e-06,0.009106614,3.393193e-07
1739,0.9999894,1.0322939e-05,3.1489948e-09,1.9779695e-07,4.883802e-13
1740,0.9999205,7.947086e-05,1.3648428e-08,3.5988523e-12,2.8596644e-10
1741,0.9999324,6.758528e-05,1.9744437e-09,4.0428755e-08,3.4143674e-11
1742,0.9999304,6.889048e-05,6.199134e-09,7.5852256e-07,2.0408711e-10
