,0,1,2,3,4
0,0.9999212,7.02175e-05,5.581796e-07,7.9964275e-06,7.5801415e-10
1,0.6697174,0.0060392655,0.31858838,0.0053038527,0.000351116
2,0.9985305,0.0014000877,3.5550343e-06,6.557784e-05,1.9996237e-07
3,0.9996499,1.580247e-06,0.00016115206,0.00018731301,1.1225186e-07
4,0.99725133,0.00014446599,0.002216657,0.00037060768,1.7043134e-05
5,0.9999901,9.286607e-06,9.765084e-09,5.9379295e-07,1.5370486e-12
6,0.9999583,3.0390767e-05,5.3029154e-08,1.1264816e-05,3.2101411e-12
7,0.9978777,0.0018867332,1.01297865e-05,0.00022517497,2.3464774e-07
8,0.99969065,0.00029313882,5.1114807e-06,1.1069095e-05,6.5626565e-10
9,0.9952095,0.0046989024,6.5131564e-05,2.6226688e-05,2.1211652e-07
10,0.9999484,4.4623957e-05,8.964611e-08,6.931266e-06,9.551791e-12
11,0.9999988,7.11924e-07,3.1217904e-09,4.5372863e-07,3.1836472e-13
12,0.9796912,5.820109e-05,1.4095541e-06,0.020249052,1.6314905e-07
13,0.99820864,0.0015947038,4.488536e-06,0.00019218451,5.3168804e-08
14,0.9995332,0.0004453727,1.7006803e-05,4.394134e-06,5.973415e-09
15,0.99795026,0.00079969934,0.0009510227,0.0002726968,2.6402477e-05
16,0.9984541,0.0015237903,1.2171049e-05,1.0009685e-05,1.314279e-08
17,0.9911288,0.00091768894,3.5902035e-06,0.0079476,2.3820355e-06
18,0.9999273,7.000029e-05,5.4118965e-07,2.1517853e-06,4.0111654e-11
19,0.99903274,0.00010454935,0.0007946432,6.439999e-05,3.700662e-06
20,0.9999871,1.1102948e-05,1.5644314e-06,2.8133044e-07,1.5958155e-11
21,0.9978241,0.0021624276,9.881132e-06,3.635995e-06,2.166975e-08
22,0.99986637,0.00011411722,3.169956e-06,1.6340437e-05,6.550288e-11
23,0.98924863,0.0005841726,2.6788996e-06,0.010163149,1.2845351e-06
24,0.99991727,7.966919e-05,3.610442e-07,2.7893175e-06,3.405313e-12
25,0.9999527,4.268271e-05,2.0090836e-06,2.6917503e-06,6.313739e-11
26,0.99927837,0.00047043004,9.279068e-06,0.00024032623,1.6882249e-06
27,0.9991948,0.00026884305,0.00014709905,0.0003877285,1.5945947e-06
28,0.9964234,0.0034687899,2.2342248e-05,8.462432e-05,7.2983704e-07
29,0.99911004,5.4064887e-05,0.000701756,0.00013379059,3.6407485e-07
30,0.9993555,0.00026322654,7.190773e-05,0.0003092033,6.3572855e-08
31,0.97221845,0.00029915146,7.941029e-06,0.027473016,1.5095898e-06
32,0.99995077,1.1281266e-05,1.586476e-05,2.2045222e-05,4.5015973e-09
33,0.999663,0.0001356952,2.8901067e-07,0.00020099904,5.6900316e-09
34,0.9686076,0.0028288965,0.008604882,0.019952446,6.101312e-06
35,0.99924374,6.937326e-05,6.391445e-05,0.0006199201,3.0928668e-06
36,0.99999785,1.8288298e-06,1.615972e-07,5.184895e-08,1.563785e-07
37,0.9567552,0.03401456,0.004765469,0.0030258987,0.0014387663
38,0.99993145,6.479803e-05,4.5153854e-07,3.2058279e-06,4.729878e-12
39,0.9815212,5.4608096e-05,1.0625723e-06,0.018423058,1.3443919e-07
40,0.999946,4.8939608e-05,7.940493e-07,4.241422e-06,2.390373e-12
41,0.97237355,0.016710574,0.0031524808,0.000777198,0.0069862916
42,0.99986184,0.00012685095,2.8767126e-06,8.462663e-06,5.8756354e-11
43,0.99925274,0.00073012436,6.2739355e-06,1.0858847e-05,1.2866528e-09
44,0.99933237,0.00060606236,1.7678552e-05,4.3852506e-05,3.841241e-09
45,0.9975702,0.0024056116,1.840428e-05,5.7831553e-06,4.0259774e-08
46,0.9999509,4.6074997e-06,1.2662863e-07,4.4277054e-05,1.6897637e-10
47,0.9996531,3.1534094e-06,0.00032069808,1.712532e-05,5.901275e-06
48,0.9997845,9.558104e-07,7.8422425e-05,0.00013607965,1.8567816e-08
49,0.9999542,3.457008e-05,8.501339e-09,1.1166699e-05,3.7228234e-10
50,0.99950707,0.00048213097,2.8465806e-08,5.2586015e-06,5.6240847e-06
51,0.9992023,0.00067167665,4.660459e-06,0.00012136637,4.1609187e-09
52,0.9984849,0.0010565345,0.00014406264,0.00030071166,1.3854862e-05
53,0.99985945,0.00011513382,9.551116e-06,1.5778036e-05,2.698608e-10
54,0.9999862,3.939508e-06,2.6265423e-09,9.906179e-06,7.726382e-12
55,0.9745628,0.0010151401,0.022440098,0.0019697817,1.2081729e-05
56,0.9903702,0.009546977,1.0261265e-05,7.2392235e-05,8.990514e-08
57,0.999887,1.2956481e-05,6.357681e-05,3.6071044e-05,3.191685e-07
58,0.98990905,0.0062036873,0.0026194754,0.0005101863,0.0007575732
59,0.9996948,0.0003043474,5.825269e-07,2.998086e-07,9.184173e-11
60,0.99987113,0.00012238286,5.178802e-06,1.218023e-06,2.0223948e-10
61,0.9527273,0.016606702,0.029574143,0.0009050027,0.00018684722
62,0.9904981,0.008228836,0.0007959251,0.00044246682,3.459056e-05
63,0.99022186,0.0057464056,0.003694108,0.00024586884,9.177918e-05
64,0.9992506,0.00071432866,1.7936412e-05,1.705694e-05,4.3222382e-08
65,0.9999125,6.866761e-05,1.1982532e-05,6.7961428e-06,1.4336139e-09
66,0.99996984,5.3784274e-06,7.2568523e-06,1.7493292e-05,1.4959922e-09
67,0.9930554,0.0013464852,0.0038184049,0.0017654392,1.4336966e-05
68,0.99642074,0.00015445084,1.2450739e-05,0.00015221474,0.0032602632
69,0.99993896,1.2555373e-06,4.640717e-06,5.504651e-05,1.3421446e-09
70,0.9998907,0.00010223272,1.3039414e-06,5.7878137e-06,2.1243281e-11
71,0.9998814,1.3669394e-07,4.9121412e-05,6.9375834e-05,1.5828483e-08
72,0.9993337,0.000645241,5.232341e-07,2.0578367e-05,7.965496e-09
73,0.99877065,0.0011832579,5.0443987e-06,4.1008818e-05,1.2747451e-08
74,0.99941003,6.132813e-05,0.00036387364,0.000164614,1.0603297e-07
75,0.99996734,2.8849909e-05,9.969586e-08,3.683959e-06,5.8074595e-12
76,0.9998528,0.00012650296,4.201399e-06,1.6545067e-05,1.09416226e-10
77,0.99512523,0.003930927,0.0007362911,0.00019628344,1.1292101e-05
78,0.9999784,2.0201396e-05,1.0197015e-07,1.3630397e-06,9.686387e-10
79,0.9992273,0.00011304828,4.7180415e-06,0.0006549553,4.6395066e-08
80,0.9922386,0.007635038,5.1315834e-05,7.4925374e-05,2.679203e-07
81,0.9926374,0.006836469,4.6689493e-05,0.00047909404,3.5510584e-07
82,0.9956851,0.004290824,1.0225679e-05,1.3827639e-05,7.5094003e-10
83,0.9980896,0.00077378604,0.0007172141,0.00041838677,1.1288037e-06
84,0.9992324,0.00072261854,2.2345908e-05,2.271539e-05,2.9042136e-08
85,0.999608,4.0359697e-05,0.00020931299,0.000109848275,3.2482425e-05
86,0.9781406,1.0118879e-05,5.1828937e-07,0.021848759,3.8990066e-08
87,0.99799335,0.0015132512,3.193942e-05,0.0004602124,1.1432089e-06
88,0.99928504,0.0006377471,2.3011798e-05,5.4205193e-05,2.8715958e-09
89,0.9999958,3.385459e-06,8.83231e-08,6.189338e-07,8.552947e-08
90,0.99993825,4.732558e-05,4.3930214e-07,1.3984092e-05,2.2730045e-09
91,0.9999943,3.6633562e-06,6.163412e-07,1.0498984e-06,3.2614474e-07
92,0.99993837,5.9223814e-05,4.479188e-07,1.992567e-06,1.33099694e-11
93,0.9998373,6.769648e-06,1.8973501e-06,0.00015399054,5.6252905e-09
94,0.9998436,0.00015631468,7.3869266e-08,2.3982158e-08,3.855748e-12
95,0.9983664,0.0016252559,6.1856417e-06,2.1086307e-06,6.980522e-09
96,0.9982033,0.0016874006,1.7056107e-06,0.00010741724,2.1787471e-07
97,0.999972,2.3316356e-05,2.0872071e-06,2.5287165e-06,2.2845842e-11
98,0.9772445,7.342412e-05,2.1016058e-06,0.02267981,2.238408e-07
99,0.87630653,0.09374324,0.012967407,0.014264109,0.00271864
100,0.9828446,0.005064266,0.007679806,0.0043750685,3.6185353e-05
101,0.9999708,2.4249353e-05,3.2332252e-06,1.7534154e-06,9.050326e-10
102,0.98874223,0.010948826,2.2493175e-05,0.00028612086,3.778544e-07
103,0.9995616,0.00040813797,5.696693e-07,2.967162e-05,4.8664397e-09
104,0.99973255,0.00022750322,2.898039e-05,1.0933138e-05,9.5588915e-09
105,0.9996371,0.00034643625,7.118382e-07,1.573516e-05,8.892442e-10
106,0.93708533,0.056459226,0.003172538,0.0024796044,0.0008032972
107,0.9997508,0.00023296986,1.1897898e-05,4.339609e-06,4.0463302e-08
108,0.99958163,2.2241388e-06,0.00020880903,0.0002057781,1.5172286e-06
109,0.9997037,3.897588e-05,0.00019649777,5.9216356e-05,1.5491526e-06
110,0.9999397,4.8835933e-05,3.830158e-07,1.1087142e-05,1.2503965e-10
111,0.9991792,0.00072728057,7.352912e-05,2.0026697e-05,4.3244277e-08
112,0.99987924,4.616492e-05,6.302906e-05,1.14593795e-05,6.607779e-08
113,0.9998872,3.500771e-05,1.7413055e-05,6.0280985e-05,4.3977618e-08
114,0.99854666,0.00017635137,7.809217e-07,0.0012760914,9.265962e-08
115,0.99895394,0.0002540561,0.0005535865,0.00023695179,1.6004714e-06
116,0.9999672,1.62674e-05,1.2329787e-06,1.3824605e-05,1.5303575e-06
117,0.9996214,0.00024783963,6.7989575e-05,1.1284985e-05,5.150391e-05
118,0.99199146,0.0017218755,0.0055448455,0.0006678855,7.3881674e-05
119,0.999524,0.0004393055,9.996295e-07,3.571193e-05,1.7385491e-09
120,0.998825,0.00034998212,0.00024716934,0.00057773077,6.728922e-08
121,0.9992593,0.00042551808,7.214832e-06,0.0003045838,3.3973627e-06
122,0.9313584,0.016202163,0.048483655,0.003281204,0.00067471294
123,0.99897504,0.00028817283,1.935521e-05,0.00071669766,6.6539025e-07
124,0.99774396,0.0022025707,2.764954e-05,2.5922718e-05,1.858535e-08
125,0.99876785,0.0011257487,3.072438e-05,7.56793e-05,3.9713928e-08
126,0.9995203,0.00012668734,0.00012495588,0.0002281055,8.93556e-09
127,0.99862254,2.9148392e-05,1.114986e-05,0.001298408,3.8645074e-05
128,0.9984079,0.0015408358,2.4767038e-05,2.6578175e-05,5.0475702e-08
129,0.99986947,0.00011898884,9.637407e-09,1.151325e-05,1.0929295e-09
130,0.9999391,2.88031e-05,2.8377071e-06,2.9182087e-05,1.1582773e-09
131,0.99987245,0.00011816213,1.4425607e-06,7.938149e-06,4.39972e-11
132,0.99990463,1.2777373e-05,4.4746994e-05,6.888039e-06,3.0993593e-05
133,0.99980944,0.000177493,3.0842673e-06,1.0065525e-05,3.1833894e-10
134,0.99995625,3.94947e-05,4.4538123e-07,3.8208977e-06,3.1928657e-12
135,0.99994385,4.333646e-05,3.984853e-08,1.2765341e-05,1.0994412e-11
136,0.9969157,0.0029875026,6.5054846e-05,3.1539304e-05,9.032672e-08
137,0.99967074,0.00021234696,5.1967632e-05,6.492351e-05,2.830057e-08
138,0.9996667,0.00031674042,6.4306746e-06,1.01621345e-05,2.0416027e-09
139,0.9991891,0.00080916984,8.2463714e-07,9.4040456e-07,1.0989353e-09
140,0.99867886,1.8152341e-05,2.2223221e-05,0.0012781186,2.777374e-06
141,0.99345607,0.0065125693,2.4990095e-05,6.4214164e-06,3.0620154e-08
142,0.9999428,4.971027e-05,5.0505882e-06,2.4322428e-06,4.5975201e-10
143,0.9993518,0.00053168356,3.1305765e-06,0.000113420676,1.7185073e-08
144,0.9999459,4.466161e-05,2.6203821e-09,7.883377e-06,1.5779119e-06
145,0.9998499,0.00014613318,3.4460552e-09,3.917356e-06,4.9909236e-11
146,0.99937326,0.00056619965,3.5395205e-05,2.5168541e-05,1.0476655e-08
147,0.76336896,0.19070417,0.012524557,0.020858223,0.012544107
148,0.9970674,0.002885649,3.2827404e-05,1.3796298e-05,3.5967406e-07
149,0.9999732,1.7077366e-05,3.3880692e-08,9.785984e-06,3.1057535e-12
150,0.99985635,0.0001333417,3.2839886e-09,1.8299284e-06,8.416811e-06
151,0.99991465,8.378631e-05,3.4546434e-07,1.1068931e-06,1.4950483e-07
152,0.9936381,0.0044107833,0.0010404903,0.0008514686,5.906613e-05
153,0.9964619,0.0011063945,0.002254808,0.00016067996,1.6201644e-05
154,0.99998343,6.2306553e-06,1.1739925e-08,9.577093e-06,7.950368e-07
155,0.9998746,0.00011745893,2.5480278e-09,8.002524e-06,1.2382027e-09
156,0.9996847,0.00030683025,6.6603053e-07,7.774752e-06,2.3070121e-09
157,0.9994955,0.00023871513,0.00023309437,3.270168e-05,7.167609e-09
158,0.90076345,0.04236506,0.050166458,0.0047015627,0.0020035366
159,0.98975134,0.0010798279,0.0046377564,0.0044752974,5.5863697e-05
160,0.9998691,0.00012507223,7.282065e-07,5.160024e-06,1.4966276e-11
161,0.99915814,0.00083474535,1.5863645e-07,6.95862e-06,1.0844841e-09
162,0.9995291,0.0004631937,2.5414247e-06,5.1662937e-06,1.7840954e-10
163,0.9999964,3.246381e-06,6.7950237e-09,3.3119366e-07,6.968389e-14
164,0.99993885,4.3235596e-05,1.771467e-07,1.7694427e-05,1.1094588e-11
165,0.9975696,0.000108966684,1.5239847e-05,0.0023042974,1.8863627e-06
166,0.93932796,0.05269906,0.0006468715,0.007160198,0.00016587815
167,0.99992263,7.430814e-05,4.4563436e-07,2.6167118e-06,4.8629924e-12
168,0.99995565,4.266033e-05,1.9515653e-08,1.68136e-06,7.730439e-11
169,0.9994966,0.00046366788,1.671322e-05,2.3138047e-05,6.755762e-09
170,0.99723876,0.0026727594,8.521333e-08,8.8017165e-05,4.060643e-07
171,0.9988998,0.0002887839,0.0001032628,0.0007051982,2.9282955e-06
172,0.94640744,0.05230926,0.00035836163,5.8654812e-05,0.0008663759
173,0.99935156,0.0005225322,7.608732e-08,1.0255916e-05,0.0001155999
174,0.9999695,2.3934716e-05,5.271933e-08,6.5551417e-06,1.7398664e-11
175,0.9999987,1.345042e-06,1.2403254e-09,3.6271416e-08,9.9183865e-15
176,0.9992416,0.0004110434,8.371035e-05,0.0002634718,9.200251e-08
177,0.97598594,0.023814151,0.00011749441,7.030366e-05,1.20674285e-05
178,0.9998791,9.81435e-05,1.3181792e-05,9.589656e-06,5.629025e-09
179,0.9999454,4.9835053e-05,4.4664307e-07,4.327719e-06,1.7315735e-12
180,0.979162,0.00016713227,1.290982e-06,0.020669263,4.029374e-07
181,0.9998548,1.2578969e-06,0.00010603602,3.3691766e-05,4.2087663e-06
182,0.9997371,0.00024878624,3.5701712e-06,1.044877e-05,2.2924196e-10
183,0.99559516,0.0036337718,0.0006773795,5.0324838e-05,4.341683e-05
184,0.9991347,0.0008364742,1.5878622e-05,1.29775135e-05,1.93078e-09
185,0.9997881,0.0001318813,5.637215e-05,2.365839e-05,3.6891304e-08
186,0.99217355,0.002588392,0.0027420872,0.0024848077,1.1184552e-05
187,0.99955994,0.00042823234,2.3651921e-06,9.373135e-06,5.5813043e-10
188,0.99867827,0.001307843,3.837818e-06,9.954276e-06,1.0528062e-08
189,0.99999845,1.023243e-06,1.6294923e-07,1.7764314e-07,8.8232746e-08
190,0.99971193,0.0002772069,5.218883e-06,5.177252e-06,4.3156996e-07
191,0.9988424,0.000104120816,0.0009770641,6.544629e-05,1.1123751e-05
192,0.997835,0.002002663,1.1219467e-05,0.00015116065,2.9531078e-08
193,0.9999193,5.1237814e-05,1.3103457e-05,1.633547e-05,4.8025736e-08
194,0.7501353,5.1701736e-05,0.0014921543,0.24831085,1.00468005e-05
195,0.9995433,0.00043241066,2.0039231e-05,4.26729e-06,1.3951165e-08
196,0.99983716,9.947971e-05,4.7529383e-07,6.277913e-05,4.683838e-08
197,0.9999547,3.799691e-05,9.564144e-07,6.3006737e-06,4.6448323e-12
198,0.9719001,0.02796292,4.7240733e-06,0.00013213907,6.965109e-08
199,0.999337,0.000301767,0.000313587,4.577541e-05,1.7592212e-06
200,0.97782123,0.020319754,0.00010210544,0.0017526144,4.3094183e-06
201,0.9999825,1.4161113e-05,1.5348297e-06,1.8283379e-06,1.4268633e-10
202,0.99995494,4.2201023e-05,3.7504486e-07,2.5217187e-06,3.5278283e-10
203,0.99982834,8.1279325e-07,8.9897694e-05,8.04966e-05,3.2175294e-07
204,0.9999982,1.5238772e-06,3.715485e-08,1.063474e-07,1.4436525e-07
205,0.99987495,0.000113810514,9.225586e-06,2.0004754e-06,9.512302e-10
206,0.99830127,0.0015363304,9.0231835e-05,7.186044e-05,2.7384823e-07
207,0.99970406,0.00029210435,2.0867851e-06,1.6254131e-06,9.834735e-08
208,0.99997675,2.160072e-05,5.503925e-07,1.0802923e-06,1.9573163e-13
209,0.99995947,3.9640214e-05,4.6263864e-11,8.3725917e-07,8.616217e-11
210,0.9177601,0.02806418,0.048710793,0.0051718545,0.0002930735
211,0.9835265,5.5119188e-05,7.40415e-07,0.016417405,1.9121191e-07
212,0.9964813,0.0035116908,1.6299174e-07,6.89296e-06,1.0916512e-09
213,0.89518505,0.026652519,0.064818054,0.011340669,0.0020036492
214,0.8322248,0.0014081304,0.003122918,0.0012765605,0.16196747
215,0.9995987,0.00039697764,2.6249104e-06,1.7614682e-06,9.614854e-10
216,0.9995408,0.00020450278,0.00019097437,6.371671e-05,1.6383774e-07
217,0.9999441,5.5453565e-05,2.9277342e-07,1.8417838e-07,5.300271e-12
218,0.9991416,0.0008485372,4.785606e-07,9.431203e-06,1.3367484e-09
219,0.9993304,0.00018396576,0.0001902442,0.00029545964,4.1136854e-08
220,0.98999155,0.00012327977,1.0316462e-06,0.00988383,2.522561e-07
221,0.96618193,2.370455e-05,8.362037e-05,0.00013450434,0.03357615
222,0.99979705,0.00016079028,1.8706982e-05,2.3538669e-05,2.055381e-09
223,0.99996185,2.9502908e-05,1.7465471e-06,6.9155194e-06,1.3162189e-11
224,0.9998585,9.802015e-05,2.8152694e-05,1.5360549e-05,8.879669e-09
225,0.9999622,3.7075282e-05,2.959089e-07,4.4158804e-07,1.7748655e-12
226,0.99921334,0.0007825339,2.3916423e-06,1.6724099e-06,4.844685e-10
227,0.931138,0.06805977,0.0004857648,0.00011662747,0.00019987106
228,0.99816066,0.0017020324,2.1053193e-06,0.00013467915,4.5005294e-07
229,0.99990404,9.448753e-05,8.965679e-07,5.6182625e-07,7.854736e-11
230,0.9999794,1.8770264e-05,8.0770224e-07,1.0547833e-06,2.5579365e-13
231,0.998946,0.0010081767,1.5860582e-05,2.9995968e-05,1.8666395e-08
232,0.9999641,2.9402981e-05,2.5288944e-06,3.9024694e-06,2.7333851e-12
233,0.99972826,9.76292e-05,4.4926375e-05,0.00012793914,1.3683064e-06
234,0.9998895,0.00010697324,1.5632974e-06,1.9864854e-06,5.8280714e-11
235,0.99998415,4.4620503e-08,7.807057e-06,3.6902395e-07,7.5795056e-06
236,0.9998838,0.00010832797,5.976513e-09,7.852021e-06,8.6145335e-10
237,0.9989479,0.0010173655,2.9270823e-06,3.146058e-05,3.9219577e-07
238,0.9993253,0.000666783,3.4095317e-06,4.583508e-06,3.056179e-10
239,0.9944127,0.0026995335,0.0015009047,0.001379916,6.903888e-06
240,0.9999374,5.6477118e-05,5.2412906e-06,8.268871e-07,2.1385155e-10
241,0.9998739,0.0001198363,1.1737789e-06,5.1299608e-06,1.2495315e-11
242,0.9990748,0.00014562592,0.00013479439,0.0006413856,3.2852283e-06
243,0.9956793,0.0042802803,2.0989653e-05,1.9438081e-05,5.5682687e-08
244,0.9995472,0.0004299093,6.4668156e-06,1.6398606e-05,3.4555064e-10
245,0.9994392,0.0005552389,2.6532919e-06,2.997921e-06,3.2980368e-10
246,0.9999751,2.952023e-06,1.8684663e-08,2.1914142e-05,3.335276e-11
247,0.9986166,0.0013601629,4.792662e-07,2.273107e-05,1.8897772e-09
248,0.9643886,1.0099279e-05,4.987998e-07,0.03560082,3.580077e-08
249,0.9998976,0.00010071892,2.7459865e-07,1.4271017e-06,3.3911554e-12
250,0.9980842,0.00029455585,9.1214815e-06,0.0012572289,0.00035486804
251,0.99946755,0.00032195277,7.639146e-07,2.8276627e-05,0.00018149696
252,0.9313809,0.0055670612,0.029810652,0.015700223,0.017541207
253,0.9999745,2.5002577e-05,1.13270275e-07,3.0763462e-07,3.3764547e-12
254,0.98814327,0.002885772,0.0006277161,0.008237829,0.000105372834
255,0.9927084,0.00728746,1.7848565e-06,2.320015e-06,2.086043e-09
256,0.99965835,0.0003233615,7.5386624e-06,1.0789761e-05,1.7601852e-09
257,0.9917441,0.00025401797,0.007954084,4.0518757e-05,7.2282414e-06
258,0.9972697,0.00019832923,4.4594244e-06,2.6311602e-05,0.0025011448
259,0.9998331,0.00014529031,3.3025735e-06,1.8317218e-05,4.9548348e-11
260,0.99997365,1.4334147e-05,9.345419e-06,2.6392893e-06,2.0331314e-09
261,0.99999845,1.5002636e-06,8.197861e-10,1.3940279e-08,6.2635893e-15
262,0.9997359,3.0964937e-05,0.00017822301,5.4750755e-05,1.062283e-07
263,0.99734515,0.00015239099,0.0024323668,2.7408867e-05,4.2623935e-05
264,0.99853194,0.0011985135,0.00020390688,6.472856e-05,7.879798e-07
265,0.9974632,0.0013542332,2.171109e-05,0.0011082104,5.2613566e-05
266,0.9771599,0.022410447,2.3106088e-05,0.00040565326,8.179875e-07
267,0.99960905,0.00038725755,2.1600404e-06,1.5600593e-06,5.119131e-10
268,0.9990683,0.0009258168,2.9601438e-06,2.8318498e-06,8.9113666e-10
269,0.99978167,0.0002171759,6.370022e-07,5.495173e-07,2.17424e-11
270,0.99983716,0.000156349,2.8858645e-07,6.1424616e-06,6.115585e-10
271,0.98655427,1.8981242e-05,9.271058e-08,0.0134267295,1.8793454e-08
272,0.99906975,0.00086935004,2.3513025e-05,3.748877e-05,1.0890336e-08
273,0.99996865,2.951642e-05,2.7797e-07,1.4853662e-06,7.0136415e-13
274,0.98617005,0.00019230298,1.8924613e-06,0.013634932,8.1679275e-07
275,0.99960536,0.00037573438,5.748042e-06,1.3258142e-05,8.165077e-09
276,0.99910456,0.0008772885,9.848908e-06,8.283392e-06,2.059516e-09
277,0.9998919,1.8205528e-05,5.174301e-07,8.932338e-05,2.4307669e-08
278,0.99987185,3.1515516e-05,7.6568715e-05,1.9830273e-05,2.2442244e-07
279,0.9994336,0.0004593877,8.582377e-05,2.1130774e-05,1.1215583e-08
280,0.99895513,0.0010080779,7.581023e-07,3.603169e-05,2.4447873e-09
281,0.9993124,0.000631262,4.4438366e-05,1.1934764e-05,6.8262684e-09
282,0.9998548,7.649581e-05,3.154745e-07,6.8308414e-05,4.6248635e-10
283,0.99725336,4.4496515e-05,2.7107503e-06,2.3280923e-05,0.0026761447
284,0.99958533,0.0004088781,4.4174144e-06,1.4463693e-06,1.4354262e-09
285,0.99993443,6.424087e-05,3.6984318e-10,1.2960625e-06,1.0895121e-09
286,0.99993324,3.9998522e-05,1.1638159e-05,1.5045091e-05,2.5742095e-09
287,0.5806971,0.014176052,0.32353535,0.03758423,0.044007223
288,0.9999846,1.2958197e-06,1.0863551e-08,1.4113362e-05,2.9231373e-13
289,0.9940719,0.005911799,9.82378e-07,1.5301695e-05,1.8913873e-09
290,0.97659135,0.008267295,0.011680751,0.0020896865,0.0013709944
291,0.99440753,0.005458293,4.463194e-05,8.945063e-05,1.003412e-07
292,0.99737227,0.002622017,1.3709689e-07,5.6013996e-06,3.4808414e-10
293,0.98846006,0.00013171392,1.3660351e-06,0.011406536,2.9283956e-07
294,0.9967043,0.003277198,1.6832604e-05,1.6150511e-06,1.1610105e-07
295,0.99830735,0.00130194,0.00022699567,0.00015908178,4.628331e-06
296,0.99991643,6.963101e-05,9.289138e-06,1.939113e-06,2.7806966e-06
297,0.9999542,3.8627477e-05,8.561164e-07,6.3004245e-06,4.5620595e-12
298,0.9999714,1.0605965e-05,1.2428534e-06,1.6780987e-05,1.2652246e-09
299,0.99989414,0.00010330626,8.643529e-07,1.6980326e-06,3.6686054e-11
300,0.9984547,0.0012126938,3.030286e-06,0.0003292116,3.7997629e-07
301,0.91985726,0.06085309,0.01902665,0.00021582954,4.7120087e-05
302,0.9676646,0.027044978,0.0017820535,0.0013579056,0.0021504837
303,0.99988127,0.00011139162,9.4969984e-08,7.156027e-06,4.119625e-10
304,0.9984773,0.0014921599,1.9377934e-05,1.1266878e-05,1.9751848e-08
305,0.9910591,0.008897442,3.6599453e-05,6.8510744e-06,4.522056e-08
306,0.99978656,9.7575314e-05,1.3741145e-05,0.00010213778,1.08890905e-08
307,0.99971026,0.0002854876,1.7245575e-06,2.485718e-06,9.783504e-10
308,0.9999099,8.787005e-05,4.08749e-07,1.8567544e-06,3.5741197e-12
309,0.9231095,0.009021333,0.06282504,0.0038683629,0.0011757326
310,0.9998747,3.0839468e-07,4.3702163e-05,8.119981e-05,2.2258753e-08
311,0.9998431,0.00015439965,4.7560408e-07,2.0565847e-06,4.086552e-10
312,0.99984527,0.00015217492,1.5858237e-06,9.727136e-07,6.0375643e-10
313,0.99885535,0.0010684371,1.8363999e-06,7.2466806e-05,1.8491761e-06
314,0.99987733,0.000105537,7.048066e-06,1.012801e-05,2.4869629e-10
315,0.98800707,0.011508414,1.391971e-05,0.000470186,4.7378742e-07
316,0.97366786,0.01981263,0.0038593223,0.002263689,0.00039653722
317,0.99999464,3.2378232e-06,2.4431582e-08,2.16995e-06,2.1683484e-12
318,0.998517,0.0013052496,0.00016344212,9.433032e-06,5.0391895e-06
319,0.9994281,6.1377123e-06,0.00050927827,5.231684e-05,4.057198e-06
320,0.9999012,3.2654792e-05,5.7009114e-05,9.172882e-06,2.4204203e-09
321,0.99988055,0.00011428897,1.4187313e-07,4.955843e-06,2.1518343e-10
322,0.9998306,0.00015971456,2.148684e-06,7.4515856e-06,5.2637582e-11
323,0.99836665,0.00049531466,0.00039772576,0.00074004685,2.0960114e-07
324,0.9996848,0.00016244598,9.526993e-05,5.7561767e-05,5.7075614e-08
325,0.99257225,0.0057542254,0.0009232804,0.00075023156,1.0937014e-07
326,0.99404633,0.0059146555,2.6689355e-05,1.2153916e-05,7.7135496e-08
327,0.9989417,2.7691818e-05,2.0405962e-06,0.00011697849,0.00091157126
328,0.99988353,4.8308775e-06,5.7951984e-05,5.3589618e-05,4.4785683e-08
329,0.8908941,0.00015411996,2.2731978e-05,0.10892777,1.2689366e-06
330,0.99997234,1.5060221e-05,4.303095e-07,1.221968e-05,9.868862e-10
331,0.9998808,6.836135e-05,1.4292862e-05,3.6452675e-05,8.10006e-09
332,0.99983525,3.8296554e-07,2.9283097e-05,0.00013507079,6.549503e-09
333,0.96742123,0.02362495,0.0028011338,0.006088324,6.442e-05
334,0.9948119,0.005103372,6.343171e-05,2.1282409e-05,1.03009356e-07
335,0.9999976,2.022865e-06,9.109235e-08,1.0586002e-07,1.6607932e-07
336,0.99642533,0.0035386377,1.1452901e-06,3.490018e-05,2.657828e-08
337,0.99858046,0.0011505653,2.6750104e-05,0.00024211608,1.3773948e-07
338,0.9951623,0.0048250817,4.1994272e-07,1.228488e-05,1.0561563e-09
339,0.9449044,0.0013814635,3.551043e-05,0.053657062,2.166581e-05
340,0.9998072,1.8752524e-05,0.00013091216,4.324916e-05,2.8710273e-08
341,0.9910144,0.008320605,0.00038007108,0.00026189527,2.2994958e-05
342,0.9995912,0.00019743209,9.242704e-07,0.00020993639,4.9339616e-07
343,0.9950471,0.004713646,1.081922e-05,0.00022824426,1.7840428e-07
344,0.996861,0.003100355,3.1654214e-05,6.849537e-06,1.5121303e-07
345,0.92344445,0.045462806,0.02552412,0.005527353,4.129556e-05
346,0.9975182,3.5407487e-05,0.0023310292,0.00011465266,7.337091e-07
347,0.99735767,0.0007411036,0.0016982233,0.00020276476,1.8095386e-07
348,0.9998441,0.00015424748,2.045815e-07,1.4567538e-06,4.766511e-09
349,0.99989426,1.9016294e-07,4.4201985e-05,6.118202e-05,1.1331392e-07
350,0.99951875,0.00046525773,9.377415e-06,6.6171306e-06,7.7960216e-10
351,0.9915455,0.0017050608,0.005642755,0.0010575203,4.9217757e-05
352,0.9939977,0.00096282345,0.003123618,0.00023511781,0.0016807017
353,0.9994252,0.00057263696,1.7027954e-06,5.295634e-07,4.621765e-10
354,0.9993585,0.00018149274,0.00024612024,0.00021091569,3.0435178e-06
355,0.99865913,0.0012884013,3.4619803e-05,1.7738985e-05,7.137233e-08
356,0.99964523,0.0003335301,1.17820726e-07,2.1142221e-05,3.8698282e-08
357,0.9995055,0.00019005412,8.949893e-05,0.00020591379,9.022156e-06
358,0.99891555,0.0010792002,3.1436118e-06,2.0697807e-06,9.439602e-10
359,0.9926596,0.006770741,2.2228667e-05,0.00054664654,8.2661916e-07
360,0.9997009,6.72216e-05,5.0819683e-05,0.0001811281,5.6489574e-10
361,0.99990916,8.635091e-05,2.4000114e-08,4.5077404e-06,1.8661367e-10
362,0.99884427,0.0007530397,2.8018485e-06,2.667064e-06,0.00039724473
363,0.98933136,0.0102003785,0.00042097794,4.2201358e-05,5.1197426e-06
364,0.99032474,0.0055392785,0.0040346542,9.179099e-05,9.611154e-06
365,0.9979109,0.0020082283,2.1153379e-05,5.966611e-05,3.6171116e-08
366,0.97919613,0.020792196,1.0372067e-05,1.188826e-06,1.00030114e-07
367,0.9931919,0.005913907,0.0004802267,0.00041147915,2.4675467e-06
368,0.9966214,0.0033559725,2.6405553e-06,2.0018473e-05,1.6608839e-08
369,0.99972755,2.4100185e-05,1.9983396e-05,0.00022838682,1.5836045e-08
370,0.9995401,0.0002187702,7.924941e-05,0.0001618701,1.0919222e-08
371,0.9997601,0.00022704498,3.2696814e-06,9.604145e-06,2.8524297e-10
372,0.9983342,0.000359213,0.000786143,0.0004184412,0.000101991944
373,0.999871,0.00011131699,7.4020368e-06,1.0294869e-05,8.267643e-11
374,0.99985695,7.765298e-05,3.5110426e-07,6.5074404e-05,6.910784e-10
375,0.97562134,0.0065694386,0.005939475,0.0008692545,0.011000571
376,0.9993605,0.00053232524,3.051958e-05,7.674033e-05,4.7231858e-08
377,0.99801886,0.001893673,4.609744e-05,4.1276697e-05,1.1235508e-07
378,0.99938834,0.000591516,1.6797198e-05,3.3369538e-06,1.1776029e-08
379,0.9973658,0.0020544233,0.00032108888,0.00025826952,4.889648e-07
380,0.9999362,5.6952533e-05,8.230757e-09,6.798463e-06,3.547756e-10
381,0.9999405,2.7607566e-05,1.6423154e-07,3.160433e-05,6.147207e-11
382,0.99954456,0.00044649752,2.7576968e-06,6.218793e-06,1.0879407e-10
383,0.99982774,0.00016330855,2.164411e-06,6.7257406e-06,8.335531e-10
384,0.14843412,0.8490757,0.0023129017,0.00017622457,9.907075e-07
385,0.9990283,0.00034258558,0.00023941271,0.00038956996,1.202159e-07
386,0.9987984,0.0011568961,3.895165e-05,5.8755495e-06,6.293996e-09
387,0.99852955,0.00030239573,0.00081789034,0.00034522047,4.985173e-06
388,0.96491534,0.0029659597,0.019911136,0.0050606765,0.007147015
389,0.9971194,0.0020439452,0.0004259298,0.00040943534,1.3172898e-06
390,0.99996793,1.2716686e-06,2.0641373e-08,3.0789946e-05,1.6340393e-11
391,0.99974984,0.00022999737,6.8091135e-06,1.33412e-05,4.45999e-09
392,0.71421576,0.110439904,0.065016545,0.04119245,0.06913536
393,0.99991596,6.6783294e-05,1.2767615e-05,4.511452e-06,1.5809591e-09
394,0.9978358,0.0014888331,0.00036429483,0.00031023953,7.756188e-07
395,0.9993741,0.0002502032,0.00023886167,0.00012604399,1.0814154e-05
396,0.9999411,1.826261e-05,2.1136282e-05,4.4583835e-06,1.501034e-05
397,0.9999887,1.2895882e-06,3.6078443e-06,6.426338e-06,7.265644e-10
398,0.9999826,1.4878913e-05,1.0415942e-07,2.3971706e-06,2.6498585e-11
399,0.9999982,4.5871133e-07,1.0007937e-08,1.3274253e-06,3.767659e-12
400,0.9999505,2.7576081e-05,9.980492e-06,1.192097e-05,3.4918973e-10
401,0.9900304,0.00053076237,2.5472643e-06,0.009435122,1.1609903e-06
402,0.99915946,0.00082307553,1.3802811e-05,3.7129464e-06,1.0504665e-08
403,0.9999908,8.502359e-06,5.7748764e-07,1.81075e-07,1.8936712e-12
404,0.9998497,7.6437516e-07,6.590306e-05,8.354876e-05,1.7065733e-07
405,0.99931145,0.00060533575,3.956926e-05,9.987354e-06,3.3657594e-05
406,0.99994946,3.625675e-05,8.388312e-06,5.898325e-06,3.4001493e-10
407,0.99994135,5.31121e-05,4.782934e-08,5.4232646e-06,5.807887e-11
408,0.99984145,0.00013433091,8.10325e-07,2.3394494e-05,4.5603255e-09
409,0.98676,0.012642391,0.00012646467,0.0003495211,0.000121589735
410,0.99973315,0.00020968566,3.693024e-05,2.0294892e-05,1.9630725e-08
411,0.99879044,0.0009287663,3.4386998e-05,0.00024622417,1.8128709e-07
412,0.99989927,8.998993e-05,1.6538664e-06,9.0709955e-06,3.136085e-11
413,0.99999726,2.4457736e-06,1.7557658e-08,1.3860029e-07,8.377218e-08
414,0.9999654,8.190723e-06,1.4540053e-05,1.1829426e-05,1.4437552e-09
415,0.99943906,0.0005311665,9.567134e-06,2.0240897e-05,1.7126909e-09
416,0.9997502,6.374628e-07,0.00012304902,0.00012598628,1.02243064e-07
417,0.99984205,0.00013881987,5.5074647e-06,1.3586136e-05,4.9143187e-09
418,0.9999652,3.1788724e-05,3.2923904e-07,2.6817652e-06,1.2685882e-12
419,0.9999467,5.0837123e-05,2.1974815e-07,2.2357733e-06,2.3532146e-10
420,0.9998467,0.00014533981,1.0623805e-07,7.8232215e-06,1.6934312e-09
421,0.99943095,7.1014597e-06,1.8102816e-07,0.0005617199,1.0312579e-09
422,0.96260345,0.033472583,0.0019433212,0.0019561185,2.4489344e-05
423,0.9998733,3.6474373e-07,3.4167366e-05,9.216975e-05,3.7642224e-08
424,0.9998287,0.00016118183,4.8437873e-06,5.315154e-06,1.8479663e-09
425,0.99939,3.0879004e-05,1.0341332e-06,0.0005779427,1.6248367e-07
426,0.99954635,0.000114444876,0.00026316635,7.591155e-05,1.4234126e-07
427,0.9981692,0.001640232,0.00011801395,7.250036e-05,9.774097e-08
428,0.96738386,0.032523282,6.118098e-05,2.9187797e-05,2.4599683e-06
429,0.9999969,6.7433695e-07,1.962046e-06,2.7102908e-07,1.620554e-07
430,0.99943715,0.0005421376,4.0657173e-06,1.6688893e-05,1.5108881e-09
431,0.98617744,0.00010664727,1.0393602e-06,0.013714672,2.2491315e-07
432,0.9999678,2.4186667e-05,1.5719144e-10,4.7825523e-07,7.4539867e-06
433,0.9997496,0.00011319628,6.891331e-05,6.829862e-05,8.808481e-09
434,0.99968696,0.00028951518,5.0159542e-06,1.856513e-05,2.065276e-10
435,0.999373,0.0006131217,5.8209876e-06,8.0700265e-06,2.9403916e-08
436,0.99975127,6.8940244e-05,1.6686927e-07,7.44278e-07,0.00017886581
437,0.9994373,0.00033293324,1.8654395e-06,0.00022775508,1.8595502e-07
438,0.996899,0.0020009563,5.3323397e-06,8.8682e-05,0.0010060393
439,0.9999548,4.0801882e-05,6.8931064e-07,3.6983597e-06,3.094326e-12
440,0.99987483,0.00012191503,1.0871762e-09,3.2627704e-06,7.6377377e-10
441,0.99829596,0.00047900446,0.00035555707,0.0008694226,1.1096724e-07
442,0.99854773,0.00013967424,6.229315e-06,0.00013511366,0.001171284
443,0.9985073,0.00048587468,0.00035565422,0.00065086945,1.8581194e-07
444,0.9999982,1.5109704e-06,1.3922451e-11,3.9310848e-08,2.8030516e-07
445,0.99771225,0.0020357114,6.7495705e-05,0.00018452764,3.409262e-08
446,0.99877626,0.001026806,4.2668953e-06,0.0001908818,1.8333899e-06
447,0.99910825,0.0004966531,2.3889575e-05,0.0003710406,7.3551e-08
448,0.9998105,3.3467916e-06,3.126731e-06,0.00018280967,1.9798537e-07
449,0.9999025,8.419958e-05,2.378738e-06,1.0925354e-05,2.3146977e-11
450,0.9982262,0.0006109213,0.0009440687,0.00021303189,5.654036e-06
451,0.99989367,7.0228634e-05,3.3520228e-05,2.6380867e-06,5.053505e-10
452,0.9996332,0.0003478595,8.206536e-06,1.0772464e-05,1.6766033e-09
453,0.99904996,0.0006391282,0.00015850566,0.00015218036,1.9911354e-07
454,0.9999523,4.2054595e-05,2.3147755e-09,5.5503356e-06,5.540041e-11
455,0.99999905,5.5187803e-07,3.5759307e-09,3.4519408e-07,2.4171873e-13
456,0.9989943,0.0008359826,2.5539455e-05,0.00014417243,3.2886573e-09
457,0.99957544,1.4697689e-05,0.00028985,0.00011707559,2.95178e-06
458,0.9998357,0.00016167929,6.1292434e-07,1.995753e-06,9.754349e-12
459,0.9982193,0.0017410646,1.4548922e-05,2.5075215e-05,3.680294e-08
460,0.9999937,4.5948486e-06,4.644781e-09,1.7048465e-06,2.3707003e-11
461,0.99993515,5.910959e-05,5.5094716e-07,5.137487e-06,3.5922978e-10
462,0.9998373,0.00010346789,4.5575463e-05,5.258915e-06,8.520421e-06
463,0.9999515,3.5058336e-05,4.3282034e-06,9.186738e-06,2.6350241e-11
464,0.99931467,0.0004443353,0.00019234426,4.8543738e-05,6.520401e-08
465,0.99970776,0.00017089538,3.8538674e-05,8.273613e-05,8.000211e-10
466,0.9961099,0.0017652462,0.0011990217,0.0009198291,5.9421322e-06
467,0.99983764,0.00015496423,2.5887698e-06,4.7593703e-06,1.0044702e-09
468,0.84140617,0.00017948283,0.0004053489,0.1580075,1.6143543e-06
469,0.99700814,7.5754356e-06,2.2464288e-05,0.0029617113,8.647566e-08
470,0.9997621,0.00022446044,4.5966904e-06,8.8330335e-06,2.3370692e-09
471,0.99969685,1.2510899e-06,0.0001373396,0.0001643807,2.0804899e-07
472,0.99741733,0.002511095,6.9408147e-06,6.469665e-05,5.5586273e-08
473,0.8695255,0.07439632,0.029080033,0.011648726,0.015349375
474,0.9928548,0.006349242,0.0002971076,0.00046470275,3.4083387e-05
475,0.9675826,0.03206597,0.00012573261,0.00022420223,1.550328e-06
476,0.9997553,1.1348336e-06,0.00013002212,0.00011320427,2.3835182e-07
477,0.999718,0.00020005068,9.287414e-07,8.024574e-05,6.7755667e-07
478,0.99909353,0.00069530954,2.2316044e-06,0.00020890322,1.6703126e-08
479,0.9999709,1.9945644e-05,2.791205e-06,6.407779e-06,7.0417405e-09
480,0.9995148,0.00042937233,1.019764e-06,5.4607e-05,1.4281636e-07
481,0.99940324,9.550113e-05,0.00046284063,3.7772388e-05,6.3457315e-07
482,0.9835544,8.517897e-05,1.0228252e-06,0.01635902,4.059828e-07
483,0.99857044,9.5081996e-05,0.0012813926,4.993078e-05,3.0571464e-06
484,0.999985,5.4498346e-06,2.1608344e-08,9.491754e-06,5.615753e-13
485,0.9910052,0.00025447292,0.008424712,0.00030695525,8.7284525e-06
486,0.9963697,0.003513302,5.6187637e-06,1.1720207e-05,9.9669174e-05
487,0.98139477,0.00013416505,8.463273e-07,0.018469894,3.4775294e-07
488,0.99970275,0.00017055115,1.9777912e-05,0.00010694562,4.9907676e-08
489,0.9958781,0.004117724,4.862873e-08,4.0855994e-06,6.4100425e-10
490,0.9928269,0.007164559,7.902301e-06,6.188558e-07,3.62303e-08
491,0.99779594,0.0020893724,2.323383e-06,0.00011230572,2.9306657e-08
492,0.99997175,3.0759873e-06,1.7539802e-05,7.661475e-06,4.492242e-08
493,0.99990344,4.4077955e-05,1.7114147e-05,3.530355e-05,2.7375748e-09
494,0.9996586,1.1111124e-06,0.0001501723,0.00019010915,1.13787884e-07
495,0.9998795,0.00011992717,2.9151448e-07,2.9807967e-07,3.5669284e-12
496,0.9994118,0.00018911641,0.00023439914,0.00016235518,2.3575433e-06
497,0.99929345,0.0005353841,9.848934e-05,7.272816e-05,1.8023284e-08
498,0.9999777,2.092845e-05,2.3078535e-07,1.0783964e-06,4.1076934e-11
499,0.9503958,0.048857763,0.00056176033,0.00014138212,4.3269632e-05
500,0.99996185,3.7447284e-05,4.595818e-07,3.0207102e-07,2.029449e-10
501,0.9998498,0.00010752847,1.4303601e-05,2.833888e-05,4.1459647e-10
502,0.9999765,1.4988785e-05,3.2072305e-07,8.120642e-06,1.127027e-10
503,0.999571,0.00032300196,6.593882e-05,3.9970117e-05,6.152424e-09
504,0.9999424,5.381705e-05,5.595866e-08,3.750225e-06,6.957453e-11
505,0.99972206,5.771007e-05,0.00015307602,6.643396e-05,7.414799e-07
506,0.99786323,0.00019092404,4.456291e-06,0.0019402436,1.2367842e-06
507,0.99999475,4.824223e-06,1.9017715e-07,2.4871804e-07,2.8070069e-14
508,0.999974,2.4670517e-05,6.4045884e-07,6.4693455e-07,1.4187966e-10
509,0.99981767,0.00018031005,1.1792564e-06,8.845491e-07,1.9260748e-11
510,0.9990281,0.00066996,0.00022327167,7.783272e-05,9.2756335e-07
511,0.9996457,0.0002508301,4.202671e-05,6.135634e-05,2.1361357e-09
512,0.996819,0.0031261942,3.4586177e-05,2.0140453e-05,5.877315e-08
513,0.9984883,0.0014705352,2.6409846e-06,3.8550847e-05,3.69124e-09
514,0.9999994,6.408539e-07,1.0846433e-10,1.3853827e-08,8.957169e-16
515,0.999923,7.512632e-05,3.4271568e-07,1.6195513e-06,2.731006e-12
516,0.9996332,0.0002608165,1.3743572e-05,9.2061884e-05,1.584501e-07
517,0.9928933,0.0010161555,0.0046433145,0.0014011816,4.6003413e-05
518,0.999966,2.1625428e-05,4.682861e-06,8.3510685e-07,6.9298085e-06
519,0.9990363,0.00015162374,0.00039675413,0.0004153968,2.393452e-08
520,0.9993137,7.730011e-05,3.0905712e-06,0.00060536194,4.6680583e-07
521,0.99998295,1.5286188e-05,2.2599327e-10,3.1394845e-07,1.4688243e-06
522,0.99961996,7.5340075e-05,0.00027750488,2.7248712e-05,4.8377583e-08
523,0.99948454,0.00049248507,1.32802015e-05,9.661193e-06,3.5032908e-09
524,0.9910267,0.0077537238,0.00012884344,0.0010798256,1.0883888e-05
525,0.9999845,1.2069782e-05,1.1391127e-06,2.3599225e-06,2.7626393e-13
526,0.9992786,0.0006615272,2.2478082e-06,5.7700592e-05,1.3370776e-08
527,0.9992454,0.00069614215,2.8348042e-05,3.0166435e-05,5.128853e-08
528,0.9919219,0.0053779185,0.0012519817,0.0014481369,2.7100114e-08
529,0.9953199,0.004440407,8.771553e-05,0.00015161104,3.2589574e-07
530,0.9983034,0.0016285885,7.957737e-06,5.985477e-05,6.506576e-08
531,0.9900698,0.009909105,2.0150812e-05,7.822384e-07,2.6585627e-07
532,0.99996924,2.8867908e-05,1.3048859e-10,1.8737853e-06,1.6474496e-09
533,0.9998455,0.00013048417,4.2638813e-08,2.3583763e-05,3.3932517e-07
534,0.99894947,0.00089512323,0.00011084199,4.4481872e-05,6.585637e-08
535,0.9911471,0.008814936,9.952074e-07,3.6917052e-05,1.092914e-08
536,0.99912554,0.0008737579,5.6298546e-07,9.5595084e-08,1.3597798e-10
537,0.9439846,0.05597854,3.2334738e-05,3.1515642e-06,1.3153508e-06
538,0.9974064,0.0017059958,0.00076316646,0.00011784203,6.484019e-06
539,0.99760157,0.0023928555,3.7958196e-06,1.742408e-06,3.6926493e-09
540,0.9998134,0.00018416898,6.5607253e-07,1.8831557e-06,1.6217404e-11
541,0.9986664,0.0013305293,2.4492037e-06,6.757062e-07,3.3042369e-09
542,0.9999819,1.5909513e-05,7.6356906e-07,1.5349078e-06,9.782894e-14
543,0.9995685,8.6541244e-05,1.6962788e-06,0.00034331423,1.02394e-08
544,0.9921103,0.0076621026,0.00020275984,2.2238835e-05,2.5648017e-06
545,0.99476963,0.0026681179,6.9991045e-05,0.0024670716,2.5250441e-05
546,0.99988353,7.885026e-05,2.2887393e-07,3.6921705e-05,3.6762717e-07
547,0.9995198,0.00046889565,1.3501798e-06,9.980476e-06,1.4278125e-09
548,0.9998963,2.0782494e-05,2.0638707e-07,8.274708e-05,1.7215528e-09
549,0.99890065,0.0010159358,1.8682414e-06,7.599278e-05,5.456525e-06
550,0.9998184,9.265971e-05,9.078899e-08,8.573415e-05,3.2408295e-06
551,0.9996748,0.00031344715,4.091858e-06,7.699942e-06,1.527566e-09
552,0.9963894,0.00057029846,0.0025537014,0.0004784055,8.2673105e-06
553,0.9993579,0.00025952855,0.00014811047,0.00023458933,4.6450186e-08
554,0.9999651,3.4599907e-05,1.6091893e-07,1.5337123e-07,5.6866133e-11
555,0.99985075,1.8173761e-05,7.5477974e-06,0.00012355753,4.5240178e-08
556,0.99997485,1.5072063e-06,3.7362916e-08,2.3526292e-05,4.2953318e-11
557,0.70275736,0.202539,0.016694956,0.058499545,0.01950919
558,0.9987526,0.0010755004,6.194916e-05,0.00010986937,6.009031e-08
559,0.9999981,1.8972156e-06,4.878008e-09,7.527762e-09,1.1163453e-14
560,0.98814476,0.0112053715,0.00035483742,0.00028550896,9.51564e-06
561,0.9998652,0.00010028924,1.1524362e-05,2.3010693e-05,2.607019e-10
562,0.99999356,5.6289796e-06,2.2217019e-07,6.631202e-07,1.461441e-14
563,0.999995,4.111333e-06,1.52266e-07,2.0992177e-07,6.3558747e-07
564,0.9998654,1.1244977e-05,3.8745384e-07,0.00012293863,1.5351161e-09
565,0.9999356,6.157358e-05,1.2817403e-06,1.4732622e-06,1.5531701e-12
566,0.9985863,0.0013705606,2.1672402e-05,2.1537939e-05,8.5904714e-09
567,0.9997919,0.0002058102,1.5447957e-09,2.3190255e-06,1.345794e-10
568,0.9959111,0.0022851406,8.640371e-05,0.0017123034,4.999821e-06
569,0.9965377,0.0034172905,2.7030777e-05,1.4194965e-05,3.8073927e-06
570,0.9999018,7.957897e-05,8.123039e-08,1.8477156e-05,8.7928126e-10
571,0.99987876,0.0001206284,1.872836e-07,4.0286747e-07,4.992645e-12
572,0.99992216,7.765656e-05,1.424983e-07,1.1296694e-07,1.5823884e-11
573,0.9653774,8.336211e-05,4.867421e-06,0.03453389,5.739823e-07
574,0.9940043,0.005925262,5.323086e-06,6.508962e-05,2.3025839e-08
575,0.9966114,0.0033828698,1.830294e-06,3.908997e-06,1.3136731e-09
576,0.9988612,0.0010744326,2.5108835e-05,3.9351307e-05,4.399236e-08
577,0.99998045,1.1612266e-05,7.431569e-07,7.240725e-06,1.2700282e-09
578,0.99977,1.5027586e-06,2.635697e-07,0.00022823345,1.7494632e-09
579,0.99989057,7.2210605e-05,4.7185354e-06,3.2418564e-05,3.746379e-09
580,0.9986091,0.00043227297,0.0003292895,0.00062927266,1.2923188e-07
581,0.9927221,0.005259541,0.0014665801,0.00055150484,1.9010191e-07
582,0.99627644,0.00026782684,0.0020106353,0.0014389686,6.0730954e-06
583,0.99907553,0.0009113562,8.559985e-06,4.5184547e-06,1.9871247e-09
584,0.9995592,0.0002892908,8.5136286e-05,6.62905e-05,2.4152321e-08
585,0.9998318,4.5831544e-07,8.2067076e-05,8.567196e-05,3.7904563e-08
586,0.99816906,0.0004796839,0.0012477993,9.001774e-05,1.3475267e-05
587,0.99973494,2.2458056e-05,0.00021540035,6.0853263e-06,2.1192813e-05
588,0.9969875,0.0024963794,1.9611223e-05,0.00044967257,4.6769943e-05
589,0.9995484,0.00044507717,2.48997e-06,4.0966784e-06,1.7893646e-10
590,0.99998844,9.207031e-06,1.1767766e-07,2.2989257e-06,2.7423149e-11
591,0.98333436,0.0004873164,5.516602e-06,0.016171029,1.7456122e-06
592,0.9999969,3.05256e-06,9.2533625e-09,4.0281343e-08,3.1993143e-14
593,0.9993357,0.0006341992,2.165438e-05,8.409413e-06,2.6623393e-08
594,0.9998809,3.104803e-05,2.3799616e-06,8.566703e-05,6.1405894e-09
595,0.99982494,3.651953e-05,5.829708e-05,7.954864e-05,7.452818e-07
596,0.99997604,2.9469834e-07,4.1348174e-09,2.3685958e-05,1.8800753e-12
597,0.99997175,2.4778336e-05,4.6105347e-07,3.0478698e-06,4.2084913e-10
598,0.9998815,2.651687e-05,1.1933603e-05,8.005217e-05,8.6703415e-11
599,0.9901725,9.429162e-05,6.4775594e-07,0.009732374,6.825825e-08
600,0.99994457,4.692428e-05,3.5432818e-06,4.9207347e-06,1.5561918e-11
601,0.998447,0.00033101387,2.8867536e-05,0.0011926397,4.7518373e-07
602,0.993105,0.00083862065,0.00467977,0.0012510321,0.00012554022
603,0.9996295,0.00032404583,1.7346321e-05,2.9110022e-05,9.85717e-09
604,0.9992976,0.00067053037,1.1117089e-05,2.067109e-05,2.2088993e-09
605,0.9998066,4.7970047e-05,6.6928806e-05,7.847855e-05,1.7684779e-07
606,0.9999702,2.5802457e-05,5.2621346e-07,3.4865022e-06,1.9535749e-12
607,0.9999982,6.812484e-07,3.417412e-08,1.0207282e-06,5.838304e-12
608,0.98866326,0.0041707777,0.0013454334,0.0057741874,4.6260306e-05
609,0.9999752,2.4147941e-05,1.3463534e-07,4.327801e-07,3.3553146e-13
610,0.9997811,0.00021133757,3.2160779e-06,4.400496e-06,1.1869786e-09
611,0.9999058,7.722333e-05,2.5884603e-06,1.4321341e-05,3.744175e-11
612,0.99743456,0.0016213661,0.00029019953,0.00065168855,2.2394916e-06
613,0.9981566,0.00028322518,2.4094866e-06,4.971569e-05,0.0015080994
614,0.99994445,4.0760973e-05,6.9946605e-06,7.782967e-06,2.7198802e-10
615,0.9899303,2.898219e-05,5.723389e-07,0.010040006,5.9587567e-08
616,0.99485743,7.593399e-06,3.0992906e-05,0.0051038684,8.5390106e-08
617,0.9997048,0.00012552938,1.7126435e-05,0.00015253172,1.9726329e-08
618,0.99985516,0.0001032137,1.7885386e-06,3.9829254e-05,1.1909582e-09
619,0.99978846,0.00020091562,2.7887081e-06,7.803244e-06,2.3948218e-10
620,0.90751594,0.01378717,0.022541123,0.00057545735,0.055580303
621,0.9990507,0.00059471425,0.00029389674,5.342776e-05,7.242815e-06
622,0.99645245,0.0007413191,8.707123e-05,0.0027094907,9.614566e-06
623,0.9994259,0.000569589,4.81277e-07,4.010617e-06,6.921865e-10
624,0.99928075,0.00069357204,1.7233842e-06,2.3806586e-05,1.9778633e-07
625,0.99828064,2.9806262e-05,1.9670191e-05,0.0016578517,1.2128119e-05
626,0.9998436,0.00013938933,2.6927944e-06,1.436885e-05,9.409765e-09
627,0.99884903,0.00011999408,0.00078914355,0.00024035109,1.4373796e-06
628,0.9994357,0.00049587555,5.477766e-05,1.3593678e-05,1.0261813e-08
629,0.99960285,0.00011433101,0.00022453557,5.760658e-05,7.5222107e-07
630,0.9998963,4.135902e-06,3.3799042e-05,6.549654e-05,2.5022015e-07
631,0.9953726,0.0016970785,0.0008858321,0.0020303722,1.4159829e-05
632,0.9999573,4.208903e-05,2.1078228e-07,4.263933e-07,1.3305004e-13
633,0.99606776,0.0010109298,4.2789212e-05,0.0028750042,3.4385494e-06
634,0.9999844,1.1757095e-05,8.415958e-07,3.0083627e-06,2.2407393e-12
635,0.9981516,0.0015771573,9.313471e-05,0.00017808063,5.420072e-08
636,0.9999366,5.1083298e-05,2.5919437e-06,9.639134e-06,4.2992534e-09
637,0.99306846,0.006841645,5.863525e-05,3.135524e-05,6.2844308e-09
638,0.9999387,5.6738318e-05,4.904196e-08,4.504702e-06,1.269052e-10
639,0.999925,2.6548489e-05,6.2867716e-06,4.2005828e-05,6.7064235e-08
640,0.9938107,0.0058843913,5.5449357e-07,0.000302535,1.9078022e-06
641,0.99500966,0.002281605,0.0014373692,0.0012630508,8.38091e-06
642,0.9995239,9.987024e-05,6.886489e-07,0.00037553092,8.1522785e-08
643,0.99978787,0.0002100444,5.954675e-07,1.492109e-06,3.8340487e-11
644,0.9963955,0.0013769874,0.00013983184,0.0020629663,2.4751203e-05
645,0.9896876,0.009841739,0.00012076073,0.0003471866,2.7273788e-06
646,0.99967897,0.00031469838,3.5816538e-06,2.7503138e-06,1.134678e-09
647,0.9999151,6.152216e-06,2.0222129e-07,7.84843e-05,1.113577e-11
648,0.99895203,5.5778733e-06,0.00086943083,0.00017188821,1.1276842e-06
649,0.9996301,0.00032558187,2.3892262e-08,1.5862371e-06,4.2670363e-05
650,0.99812096,0.0018066138,3.417661e-05,3.8041773e-05,1.5768981e-07
651,0.9995964,0.0003974201,5.6632626e-07,5.544266e-06,1.7236533e-07
652,0.9950406,0.0006937607,0.0027958972,0.001438209,3.154294e-05
653,0.9996847,0.00031385466,9.0109467e-07,5.4593517e-07,1.2619382e-10
654,0.9998511,0.00013900368,9.760759e-07,7.0769233e-06,1.7311944e-06
655,0.9997296,0.00025895794,7.3647334e-07,1.06738125e-05,4.2091175e-10
656,0.999111,0.00078717497,3.6997648e-05,6.486747e-05,1.6700964e-08
657,0.99955016,0.00034927507,4.481308e-06,9.5791394e-05,1.9844359e-07
658,0.99998426,6.358683e-06,6.5025043e-09,9.3967e-06,5.072635e-12
659,0.9921599,0.0071112197,2.8061493e-06,0.00072472723,1.2978007e-06
660,0.9999019,9.706512e-05,8.393671e-07,2.593675e-07,1.7092529e-10
661,0.9996222,0.00023794234,1.1513455e-05,0.00012808428,2.281021e-07
662,0.9929604,0.0047108405,0.00057316874,0.0017247939,3.078636e-05
663,0.99993837,4.6247853e-05,1.6505747e-06,4.0349846e-06,9.610852e-06
664,0.9846799,0.0002359033,4.00245e-06,0.015079285,9.755047e-07
665,0.9999827,2.3510204e-06,2.104603e-08,1.4908018e-05,4.7937235e-13
666,0.99788874,0.0020089124,6.0811923e-05,4.1533494e-05,3.5013098e-08
667,0.99999785,2.1430508e-06,2.9438902e-09,3.137638e-08,3.0220875e-14
668,0.988487,0.0076099583,0.0026481359,0.0012208017,3.4218385e-05
669,0.99945873,0.00046671848,2.6282723e-06,7.1992145e-05,5.208756e-08
670,0.99950516,0.00014627798,0.00016224294,0.00018609727,1.3444044e-07
671,0.9999881,8.225636e-07,4.397321e-06,6.630094e-06,4.3530585e-10
672,0.99792683,0.002031315,1.8114108e-05,2.3802779e-05,1.3914524e-09
673,0.9977487,0.0022358038,1.1196265e-05,4.252712e-06,2.5651583e-09
674,0.9994343,0.0005499996,7.1889294e-06,8.544884e-06,5.4656986e-09
675,0.9895606,0.008383563,0.001357645,0.00065517763,4.302439e-05
676,0.99973077,0.00025950832,1.8693365e-07,9.553183e-06,5.2347926e-10
677,0.99951863,8.6830485e-05,7.1731296e-07,0.0003937715,3.2849088e-09
678,0.9998698,0.00012889752,8.1226116e-11,1.3182444e-06,4.521348e-10
679,0.99990475,9.0048285e-05,4.173461e-07,4.827342e-06,1.3103348e-08
680,0.9997274,0.00024349934,1.3139576e-06,2.7817026e-05,9.402783e-10
681,0.9998578,0.00013588704,1.2966937e-06,5.0480303e-06,1.3897574e-11
682,0.9999423,4.4387696e-05,4.12438e-07,1.2897812e-05,3.012831e-11
683,0.99963367,5.5758696e-06,3.9262652e-08,0.00036069678,2.3344524e-09
684,0.9999256,5.469544e-05,2.4721392e-09,1.9606205e-05,5.4330297e-08
685,0.9989538,0.000604159,0.0003349538,0.000106059044,1.1135783e-06
686,0.99997413,2.4680943e-05,1.7275404e-07,9.990741e-07,4.4195257e-13
687,0.9995509,0.0004430677,1.0125136e-09,6.1243045e-06,1.3446748e-09
688,0.9997907,0.0001801268,6.4405012e-06,2.2717226e-05,1.9585832e-10
689,0.9989685,0.0010178963,5.548212e-08,1.3500781e-05,1.9248556e-09
690,0.99985516,0.0001382512,1.4584978e-06,5.093518e-06,1.558524e-11
691,0.9557861,0.042329486,0.0011791306,0.00066903763,3.6192294e-05
692,0.9986045,0.00054643967,0.00035650132,0.00049250375,1.4114138e-07
693,0.99834883,0.0013297233,4.888791e-05,0.00027240926,1.0281321e-07
694,0.9981699,0.0004875971,9.57777e-05,0.0012461165,5.776005e-07
695,0.9998939,2.733899e-05,3.755342e-05,4.121656e-05,3.3473977e-09
696,0.9996352,0.00028360522,3.814713e-06,7.734009e-05,9.198606e-09
697,0.99997044,2.5385285e-05,1.0075757e-06,3.1278514e-06,7.225689e-12
698,0.98216337,0.01780068,2.150867e-06,3.3714114e-05,9.7510785e-08
699,0.99727255,0.0023500775,0.00022940974,0.00014749811,4.9053045e-07
700,0.9842636,0.011818301,0.0026926184,0.00023029571,0.0009952575
701,0.9819264,0.00024101461,0.01671021,0.0011090642,1.3381854e-05
702,0.99989486,9.2904476e-05,6.2986746e-06,5.973073e-06,1.7111851e-10
703,0.9996332,0.00033705862,7.2693338e-06,2.2518134e-05,2.8324711e-09
704,0.9996462,3.274756e-05,0.0002875067,3.3359072e-05,1.0560606e-07
705,0.9995233,0.00035858227,1.7485738e-06,0.00011645047,3.145326e-08
706,0.99993694,6.209684e-05,6.6062165e-07,2.9446966e-07,1.2735617e-11
707,0.9482412,0.051334612,0.00012057057,0.00027448003,2.9143788e-05
708,0.9993123,8.774984e-06,6.3667485e-06,0.0006710197,1.538395e-06
709,0.99919087,0.00080029573,1.0575742e-08,8.759262e-06,4.2430743e-09
710,0.96558017,2.4179892e-05,0.000102047365,9.870594e-05,0.03419489
711,0.9902712,0.004601683,0.0024228257,5.6922803e-05,0.0026473228
712,0.9999466,5.2552157e-05,1.1350263e-07,7.7703567e-07,4.2059073e-13
713,0.9901068,0.0016385077,0.001753186,0.006262359,0.00023917036
714,0.99999404,1.659228e-09,3.8596455e-09,5.977375e-06,2.7253392e-13
715,0.9999145,6.7796134e-07,3.2949818e-05,5.1356543e-05,4.5215697e-07
716,0.9953312,0.0009037551,0.003532941,0.00021158089,2.0411213e-05
717,0.9959139,0.0025625061,0.0008432892,0.00067667227,3.5052053e-06
718,0.9993919,0.00055165845,1.6814134e-05,3.9603172e-05,2.1667266e-09
719,0.99882585,0.00087560504,0.00012354311,0.00017483157,1.6304634e-07
720,0.999951,4.544336e-05,5.7087357e-07,2.9907017e-06,3.5722766e-12
721,0.99959177,0.0003562735,9.5340084e-08,3.5721998e-06,4.829364e-05
722,0.99994266,5.414954e-05,6.9698174e-08,3.0993394e-06,7.994916e-11
723,0.9774645,0.010291853,0.004732029,0.0074085863,0.0001030492
724,0.9994085,0.00039737514,0.00011769149,7.5744676e-05,6.6657844e-07
725,0.9983089,0.0010264282,0.00036134786,0.00030155486,1.7648567e-06
726,0.9981493,0.0013365854,0.00032205626,0.00018851778,3.6128972e-06
727,0.99965906,0.00032941325,1.9041913e-06,9.629072e-06,5.7151867e-10
728,0.99979347,8.033909e-07,7.018952e-05,0.00013550857,4.8892883e-08
729,0.9993088,0.00014958328,0.0001937495,0.00034781062,3.81334e-08
730,0.9984855,0.0015065755,6.770741e-06,1.2501281e-06,3.1056263e-08
731,0.99235255,0.007639874,6.085359e-07,6.9928356e-06,6.829205e-10
732,0.9999852,4.827196e-06,6.8322725e-09,9.990686e-06,3.123901e-11
733,0.9998387,5.5696495e-05,1.7551389e-05,8.793044e-05,7.987605e-08
734,0.9977943,0.0020258548,0.00010885006,7.045443e-05,5.7718654e-07
735,0.85333323,0.090166144,0.039982766,0.010040809,0.006477058
736,0.9996985,0.0002862599,1.8974177e-06,1.1470022e-05,1.920035e-06
737,0.99992454,3.889944e-05,1.6449523e-05,2.0096777e-05,2.2989113e-09
738,0.99534446,0.0015346291,0.002005248,0.0011047039,1.09333405e-05
739,0.994799,0.004895192,0.00022386861,6.454509e-05,1.7279826e-05
740,0.99997056,4.0965792e-06,5.5621476e-06,1.9806315e-05,5.8104754e-10
741,0.99863404,0.0013309481,1.3903807e-05,2.1055374e-05,3.0568686e-10
742,0.999652,0.0002820459,1.3256844e-06,6.458117e-05,2.9438152e-09
743,0.9996793,0.00031930755,3.97504e-08,1.4180771e-06,2.52243e-10
744,0.99999094,2.8322356e-06,2.7506003e-06,3.2291442e-07,3.0724636e-06
745,0.9999862,1.1721438e-05,6.5404924e-07,1.5280384e-06,7.348228e-14
746,0.99787617,0.0021136694,4.7451726e-07,9.782035e-06,5.951498e-10
747,0.99997485,2.4140541e-05,4.6665784e-07,5.3576827e-07,1.6708796e-13
748,0.9985098,0.00091856933,0.00042693576,0.00014073351,3.9652477e-06
749,0.99791425,0.0019659186,5.2303192e-05,6.75238e-05,1.4936754e-08
750,0.9979165,0.0020702437,1.0797166e-05,2.391709e-06,8.5136795e-09
751,0.9995875,0.00025920896,4.9754253e-05,0.00010352633,1.1935818e-07
752,0.99896026,0.0009750388,1.0903302e-05,5.3715914e-05,1.665544e-08
753,0.99943477,0.00018356314,0.00032603304,5.1444622e-05,4.1820686e-06
754,0.9997609,0.0002308279,7.0554247e-09,8.171252e-06,2.7570257e-10
755,0.9991648,0.00017934215,7.0263354e-07,2.978794e-05,0.00062532775
756,0.99998224,1.0131077e-06,8.488668e-08,1.6732236e-05,2.0727885e-11
757,0.99946696,0.00021087482,3.8209865e-07,0.00032161654,8.901831e-08
758,0.9999374,5.90718e-05,2.5822053e-06,8.4654374e-07,1.2335565e-09
759,0.9998821,0.00011575892,5.1251493e-07,1.5868776e-06,1.2398887e-11
760,0.99999654,3.3476697e-06,2.5167251e-08,8.8281396e-08,3.5388e-13
761,0.9997323,2.3476048e-06,0.000140481,0.0001244162,3.9962578e-07
762,0.99818593,0.0017516627,4.333121e-05,1.8758183e-05,1.9774136e-07
763,0.9994535,0.00015882424,0.00025417007,0.00012980461,3.7065024e-06
764,0.9997067,7.938335e-05,6.300297e-07,0.0002132447,4.908015e-09
765,0.9999751,1.2605685e-05,1.5305721e-08,1.2251417e-05,1.653829e-12
766,0.99961036,0.00036963733,4.407228e-06,1.5602734e-05,2.5394212e-10
767,0.99957484,1.0480718e-06,0.00019698407,0.00022517215,1.9590123e-06
768,0.99992776,9.2011005e-06,2.5852125e-05,3.711571e-05,9.8864426e-08
769,0.999931,6.8541434e-05,2.744842e-07,2.438651e-07,6.040533e-11
770,0.9999579,3.6566806e-05,3.007025e-09,6.0072034e-07,4.866269e-06
771,0.9993622,0.0005372628,9.033746e-05,1.0156483e-05,3.534615e-08
772,0.9999989,4.1806064e-07,1.1322568e-08,5.558713e-07,1.1712952e-12
773,0.9999391,2.3495631e-05,2.6174462e-06,3.4805587e-05,1.5372688e-09
774,0.99984205,0.0001344602,9.2855325e-06,1.4242536e-05,2.5387703e-10
775,0.99975425,0.00023436878,4.683441e-08,1.11931e-05,1.1456942e-07
776,0.9982095,0.00025412886,8.945936e-07,0.00153509,3.5972772e-07
777,0.8945716,0.010348354,0.0101472745,0.084228724,0.0007040814
778,0.99982786,2.1620936e-05,8.9221794e-05,6.127775e-05,3.991768e-09
779,0.9998691,0.0001213397,1.0678096e-08,2.361717e-06,7.1081513e-06
780,0.9983417,0.0016056106,5.1517804e-05,1.0905424e-06,1.5886383e-07
781,0.9991253,0.00072637416,7.078105e-05,7.740428e-05,1.4728188e-07
782,0.9988738,0.0009868266,4.4362343e-05,9.495718e-05,1.726792e-07
783,0.9965121,0.0034504647,9.429924e-06,2.7991866e-05,3.6337394e-08
784,0.9905873,0.0019203738,0.0069301263,0.00047764854,8.4611995e-05
785,0.9999045,2.9197949e-05,9.643441e-06,5.6609853e-05,6.1359575e-09
786,0.9999641,3.5072826e-05,3.935236e-07,3.7824736e-07,8.320156e-08
787,0.9996087,0.00032723803,1.1845669e-05,5.2271127e-05,2.2011402e-09
788,0.99979705,0.00017890762,2.5354854e-07,2.3868204e-05,3.8301717e-08
789,0.99992025,7.288754e-05,4.4155854e-07,6.4871706e-06,7.278625e-11
790,0.9997938,0.00013158545,6.573838e-05,8.82306e-06,5.0570232e-09
791,0.99641955,0.0021239044,0.00075126084,0.0006674022,3.7860882e-05
792,0.9946714,0.0051968084,3.418035e-05,9.748876e-05,8.097952e-08
793,0.9977646,0.002048223,3.512876e-05,0.00015192473,8.169531e-08
794,0.9999448,5.3099622e-05,2.8918285e-07,1.8327066e-06,4.315554e-10
795,0.99553657,0.0042703426,8.279436e-05,0.000109964254,3.410304e-07
796,0.9999646,1.8678418e-05,8.896128e-08,1.6553704e-05,1.8220386e-10
797,0.9758572,0.00026578,0.023513496,0.0003140153,4.9472852e-05
798,0.99537176,0.0038801606,0.00034898272,0.00038857595,1.0580201e-05
799,0.9994797,0.00013215811,1.6652489e-06,0.00038638062,9.972976e-08
800,0.9997552,1.2298973e-05,1.9411213e-05,0.00021301763,7.864882e-08
801,0.9999232,1.6363906e-06,4.1878793e-05,3.3134733e-05,1.3916072e-07
802,0.9990427,0.0009364873,2.6527882e-06,1.8139552e-05,2.2227425e-08
803,0.99986756,8.4713633e-07,7.341478e-09,0.00013161598,8.902469e-10
804,0.99976414,3.9859788e-05,0.00011696844,7.858479e-05,4.3710162e-07
805,0.9999472,4.5473404e-05,5.039372e-06,2.3715231e-06,3.413339e-10
806,0.9997565,0.00017183363,1.1399314e-05,6.0184073e-05,3.1796163e-10
807,0.9961591,0.0032242835,1.2209449e-05,0.00059977063,4.671537e-06
808,0.99993455,5.2355226e-05,4.4469148e-06,8.709551e-06,8.8297e-11
809,0.99968994,0.00030944103,4.034665e-07,1.3729691e-07,1.1713411e-10
810,0.9996848,0.00030065267,2.5521097e-06,1.2001405e-05,4.0575432e-10
811,0.991939,0.007992006,6.192365e-05,6.371611e-06,5.506779e-07
812,0.99732673,3.493255e-05,9.412864e-05,0.002543992,2.892513e-07
813,0.9996474,0.0003078549,2.1688727e-05,2.3098632e-05,3.1218306e-09
814,0.9999685,2.8221762e-05,9.262697e-07,2.288457e-06,2.0214212e-12
815,0.99928004,0.00067983277,1.1236369e-05,2.8877022e-05,1.1712528e-08
816,0.99800795,0.0019444552,4.216055e-06,4.3387445e-05,8.04046e-09
817,0.9999,4.3409964e-05,4.216331e-05,1.4481589e-05,3.7631747e-08
818,0.99872285,6.6964894e-06,2.394702e-07,0.001270255,7.122915e-09
819,0.99998236,4.228152e-06,2.965911e-06,1.0492268e-05,1.5054569e-09
820,0.9992423,0.00075623643,8.59837e-07,5.2903454e-07,1.7288172e-10
821,0.99985003,0.0001388917,2.778023e-06,8.262194e-06,1.957481e-11
822,0.9998975,9.946484e-05,5.461045e-07,2.5250943e-06,4.380703e-12
823,0.99872726,0.0011351875,5.8935417e-05,7.853443e-05,2.3387159e-08
824,0.99988353,0.00010543665,7.2232844e-08,1.094255e-05,7.1351897e-10
825,0.99402547,0.0051545566,0.0005346201,0.00028432804,1.1190983e-06
826,0.98493934,0.00010057082,7.1935335e-07,0.01495915,1.9533391e-07
827,0.9999504,3.9903654e-05,2.7308338e-06,6.866501e-06,1.0818924e-09
828,0.9999927,1.1887521e-06,4.2752063e-06,1.7826386e-06,2.883874e-10
829,0.99963963,0.00035547515,1.4228975e-06,3.4189572e-06,5.5661396e-11
830,0.99997795,1.997994e-05,7.51182e-07,1.3114084e-06,3.8063178e-13
831,0.9993612,0.0005956424,7.742679e-06,3.5335324e-05,6.1928294e-09
832,0.9998969,9.649802e-05,1.6040207e-07,6.355679e-06,2.2856908e-10
833,0.999995,4.979588e-06,4.2706456e-09,3.5803538e-08,9.129396e-14
834,0.9993901,5.3424104e-05,0.0005249652,3.116804e-05,3.8558915e-07
835,0.997407,0.0025658829,1.5543732e-05,1.1508556e-05,1.4380804e-08
836,0.9996716,0.00032388768,1.737691e-06,2.6015277e-06,1.904454e-07
837,0.9857841,0.0010132076,0.012970473,0.00016146786,7.080213e-05
838,0.9995376,0.00038999403,1.5294088e-05,5.711281e-05,2.4230222e-09
839,0.99998283,3.4675988e-06,1.9005621e-06,1.1787267e-05,7.598761e-10
840,0.9999597,3.9550658e-05,4.057326e-07,3.2868763e-07,1.1818943e-10
841,0.5727955,0.4178371,0.0077526094,0.00037404348,0.0012406836
842,0.99978775,0.000138273,7.0312744e-08,7.397324e-05,9.546878e-10
843,0.99994695,4.5840232e-05,1.5173721e-06,5.639996e-06,4.7471624e-11
844,0.99992514,6.5744496e-07,3.954108e-08,7.4048774e-05,3.524856e-11
845,0.9998903,0.000109527886,5.8602765e-08,2.815704e-08,2.2462622e-12
846,0.9975922,0.00070421724,6.996242e-05,0.0016236681,1.0013852e-05
847,0.99527293,0.000518665,0.003231691,0.00042440253,0.00055234245
848,0.9675519,0.027398642,0.0003597432,0.0036606968,0.0010290174
849,0.9995803,0.0004087663,2.4285825e-06,7.214982e-06,1.2738323e-06
850,0.9948428,0.004958598,0.00013261932,6.602227e-05,3.0076528e-08
851,0.9919579,0.0027560678,0.0039957645,0.0012291129,6.109824e-05
852,0.9970784,0.0025644526,0.00017910186,0.00017536491,2.7159854e-06
853,0.99825674,0.0015097596,1.13794995e-05,0.00022196346,8.4976996e-08
854,0.99960405,0.0003134698,7.5895946e-07,8.153925e-05,9.704735e-08
855,0.99939585,3.837024e-06,0.0003361676,0.00026352727,5.778677e-07
856,0.9997669,0.00015445016,1.7102835e-07,7.8524696e-05,4.968176e-09
857,0.99808383,0.0019124866,4.3864656e-08,3.6853332e-06,3.0080302e-10
858,0.99951315,0.0004046038,5.803846e-05,2.4122975e-05,2.9168502e-08
859,0.99982256,2.024793e-05,0.000117238735,3.981914e-05,1.00331675e-07
860,0.99497026,0.002783896,0.00046564586,0.0017570878,2.3091745e-05
861,0.9993082,0.0002286874,7.842522e-05,0.00038446748,1.3003964e-07
862,0.9997166,0.00025320522,1.5620717e-08,3.0112351e-05,8.029358e-10
863,0.9394322,0.008348309,0.049946565,0.0019276667,0.0003452688
864,0.9999995,4.885669e-07,4.838418e-10,2.8704294e-08,7.501235e-15
865,0.99994886,5.010725e-05,6.6834986e-07,4.5374017e-07,3.5573898e-13
866,0.99570113,0.004152612,4.447505e-06,0.00014170402,1.1639019e-07
867,0.99964833,0.00034353932,4.5611564e-06,3.5601986e-06,8.309184e-09
868,0.9999355,6.311423e-05,6.391425e-07,7.944954e-07,2.918056e-11
869,0.9998994,5.5310406e-06,3.1004763e-08,9.5102456e-05,2.9220065e-10
870,0.99999595,3.1167915e-06,1.2253633e-11,4.0703924e-08,9.775708e-07
871,0.9975435,0.0023859057,4.5135082e-05,2.5218791e-05,1.6451187e-07
872,0.9998172,7.543489e-05,3.7804176e-07,0.000107032545,4.1015796e-10
873,0.999824,0.00012375411,7.868484e-06,4.4437333e-05,4.7362194e-09
874,0.9991217,0.0006937378,5.109602e-07,0.00018385705,1.04825176e-07
875,0.9996793,0.00024514028,4.4680326e-07,7.497083e-05,1.762796e-07
876,0.9997428,0.00014518673,5.2438525e-05,5.9585596e-05,1.020355e-09
877,0.99993074,6.5042535e-05,4.046829e-07,3.7887537e-06,3.919432e-12
878,0.9934994,0.00085162255,2.8206436e-05,0.0056173517,3.401468e-06
879,0.9991788,0.0002893865,0.00039946285,0.000110813955,2.1482285e-05
880,0.9998209,0.00010485109,1.9046959e-06,7.229949e-05,1.8429781e-09
881,0.9972887,0.0027063377,2.6371274e-06,2.3173525e-06,7.6383383e-10
882,0.7740233,0.043692417,0.17540333,0.005434115,0.0014469402
883,0.99952865,0.00043616185,1.8112842e-05,1.7093214e-05,2.241744e-08
884,0.99983966,0.00013695007,8.91633e-07,2.2512606e-05,7.0630097e-09
885,0.99983597,5.0087687e-07,6.8641544e-05,9.484935e-05,4.3796653e-08
886,0.9897267,0.009675551,0.00017264942,0.00040536377,1.9695295e-05
887,0.9993376,0.0006449695,1.4091055e-05,3.2459443e-06,4.455533e-09
888,0.98752195,0.00012214915,7.3104394e-07,0.012354936,2.719422e-07
889,0.9999939,5.4009424e-06,2.9824246e-08,6.3548134e-07,9.612906e-12
890,0.99998796,1.1359277e-05,3.019576e-07,3.543583e-07,1.0503848e-13
891,0.99913484,0.0008578732,3.063259e-06,4.2300435e-06,3.5122977e-10
892,0.99650097,0.002969953,5.589956e-06,0.00052217994,1.2608511e-06
893,0.9930264,0.001030124,0.00010773864,0.00094543427,0.0048903245
894,0.9999918,7.1052277e-06,6.556941e-09,1.0164067e-06,1.6190122e-12
895,0.9999478,3.493462e-05,2.7987472e-08,1.7227174e-05,4.2714682e-10
896,0.9973123,0.0024873444,2.2592842e-06,0.00019740174,7.314382e-07
897,0.9944851,0.0018337935,0.0025215335,0.0011326526,2.6950263e-05
898,0.99212354,0.006806716,0.00017085363,0.0008665392,3.243709e-05
899,0.99999726,2.6955565e-06,8.052416e-09,1.9896952e-08,4.384906e-14
900,0.99622643,0.0036890323,6.896487e-05,1.5616464e-05,5.8890883e-08
901,0.99629706,0.0006746688,0.00042989588,0.0025117323,8.653864e-05
902,0.9994135,0.0005593968,8.017316e-06,1.9148134e-05,7.4610523e-10
903,0.9924946,0.007275389,0.0001633023,6.550611e-05,1.1300955e-06
904,0.32696667,0.6725699,0.00041476445,4.665237e-05,2.1043968e-06
905,0.998487,0.0004520322,0.00038116964,0.0006794986,2.0440713e-07
906,0.99006116,0.0082091205,0.00060687005,0.001038853,8.400591e-05
907,0.9997273,0.00023844077,2.9405028e-08,3.4180983e-05,7.7649376e-10
908,0.99898165,0.0009878351,2.0264828e-05,1.0237642e-05,4.2765453e-08
909,0.99998224,1.4604475e-05,1.2022551e-09,3.643965e-07,2.7912577e-06
910,0.99620396,0.00039552007,4.4902165e-05,0.00018416787,0.0031714395
911,0.99947566,0.00022225885,0.00022804202,7.3368166e-05,7.682569e-07
912,0.9999373,4.8353202e-05,6.4524816e-06,7.898314e-06,7.854578e-11
913,0.99990964,4.9305938e-05,3.5293968e-07,4.0623498e-05,3.8987136e-11
914,0.99802005,5.3590586e-05,0.0018520817,7.019738e-05,4.1505273e-06
915,0.9996617,0.00031433662,7.712742e-09,2.397294e-05,2.4284882e-08
916,0.9963097,0.0036193246,4.718331e-05,2.3633034e-05,6.6234755e-08
917,0.99671555,0.0032786196,7.014577e-08,5.7433363e-06,1.4069691e-09
918,0.99889153,0.0010957924,7.705304e-06,5.0036488e-06,1.08369065e-08
919,0.982396,0.00016719327,2.6970902e-06,0.017433623,4.6341015e-07
920,0.99785066,0.002129301,1.0121082e-05,9.980669e-06,1.5210817e-08
921,0.9784064,0.0078043453,0.012595298,0.0011100719,8.4023406e-05
922,0.99998903,8.809353e-06,2.572731e-07,1.902242e-06,1.3962193e-10
923,0.9941783,3.8267182e-05,0.0014519198,0.0043279734,3.6046308e-06
924,0.9995084,0.00029221462,3.5670441e-06,0.00019530232,5.886669e-07
925,0.94816554,0.0124455355,0.0076620844,0.002289272,0.029437548
926,0.99972326,2.3487078e-06,0.0001689924,0.000104797866,6.407503e-07
927,0.9999223,7.3259194e-05,1.0881091e-06,3.2802416e-06,8.698478e-10
928,0.99843305,0.0015159299,1.40139355e-05,3.702512e-05,4.941604e-08
929,0.9994748,0.00012864977,0.00017860452,0.0002119976,5.930584e-06
930,0.99643075,0.0009090246,0.0015033714,0.0011544653,2.3197663e-06
931,0.9999664,3.2745396e-05,1.54536e-09,7.8872876e-07,9.732336e-12
932,0.99993634,5.586147e-05,8.518088e-08,7.711827e-06,3.3471548e-10
933,0.96949524,0.025504647,0.000105918545,0.004863217,3.0979776e-05
934,0.9997534,6.7490815e-05,4.4847576e-07,0.00017873645,2.3034508e-09
935,0.9999778,2.0935518e-05,4.903004e-08,1.0983706e-06,8.29316e-12
936,0.9999534,4.2004456e-05,1.930906e-06,2.6778057e-06,9.9793195e-12
937,0.99940217,0.000292907,0.00022572919,7.572548e-05,3.400007e-06
938,0.99992764,7.1575974e-05,4.4738803e-07,3.8876453e-07,4.0829295e-11
939,0.99959356,0.00039956122,2.832682e-06,4.099255e-06,6.3148556e-11
940,0.99987173,0.00012431125,2.943133e-08,3.9505844e-06,1.8802505e-10
941,0.999785,3.688896e-07,8.981205e-05,0.00012481457,2.9648447e-08
942,0.99893934,0.0010599372,6.4098833e-07,8.956981e-08,1.91255e-10
943,0.99886286,0.0010710466,1.4656428e-05,5.1317013e-05,9.287849e-08
944,0.9993773,0.0006059226,1.1624258e-05,5.1876555e-06,8.539972e-10
945,0.99995387,3.0245574e-05,5.743242e-07,1.5232989e-05,7.552718e-11
946,0.9992854,0.0006726319,9.627456e-06,3.2452688e-05,3.56785e-08
947,0.9964496,0.0004845535,0.0028053608,0.00019421394,6.6295535e-05
948,0.9945615,0.0023400674,0.0022886565,0.00079200347,1.7727361e-05
949,0.99957055,0.0004111619,1.6671616e-05,1.5572136e-06,1.1471496e-09
950,0.9997533,0.00023501115,2.721021e-06,8.994921e-06,6.91191e-11
951,0.9999316,5.804631e-05,2.5108696e-07,1.0114708e-05,5.143029e-11
952,0.98512334,0.00035800153,1.2983943e-05,0.014503372,2.382847e-06
953,0.9993907,0.00039992362,0.00017992377,2.9277333e-05,6.3740224e-08
954,0.9999292,5.971886e-05,8.658229e-07,1.0191876e-05,1.8030134e-09
955,0.9962813,0.0031771502,0.00042913275,0.000107774336,4.6079476e-06
956,0.99963987,3.026377e-05,8.552883e-05,0.0002442718,4.7763603e-08
957,0.99736977,0.0026289222,4.096297e-09,1.3102839e-06,4.80215e-11
958,0.99984324,2.716548e-05,3.5143818e-05,9.439712e-05,4.2331596e-08
959,0.994393,0.0022210686,0.0015505173,0.001607272,0.00022806358
960,0.9993761,0.00013465784,1.7683379e-06,0.00048745962,1.08134985e-08
961,0.99983263,0.00015895952,1.0817614e-08,8.288978e-06,7.571494e-10
962,0.8371722,0.1574064,0.0047854367,0.0006335089,2.3948708e-06
963,0.9769546,0.023019474,2.3343024e-05,2.1602639e-06,4.4623886e-07
964,0.9998747,0.000105343446,9.171721e-06,1.07129845e-05,5.5061156e-10
965,0.9998765,0.0001082136,4.9570335e-06,1.0291145e-05,6.446919e-11
966,0.9998895,9.4609684e-05,4.6425507e-06,1.1256085e-05,1.08696156e-10
967,0.9998951,9.835419e-05,3.0099939e-06,3.5697312e-06,5.6433236e-10
968,0.9994893,0.00035910564,1.7849011e-06,0.0001497559,3.051364e-09
969,0.9994178,0.00058024266,1.167071e-06,9.128562e-07,1.1837405e-08
970,0.99674904,0.00022007259,1.5050725e-05,0.0030134453,2.3539767e-06
971,0.9825478,0.009154004,0.0072187963,0.00082009204,0.0002592844
972,0.9996724,0.00029163805,1.3265026e-05,2.2723572e-05,6.5663186e-10
973,0.99748445,1.3905666e-05,0.0013739906,0.0011271945,5.212966e-07
974,0.9995459,0.0004271852,2.7341453e-06,2.063852e-05,3.600285e-06
975,0.9976846,0.0002432536,0.0018032236,0.00022945921,3.9465223e-05
976,0.99918705,0.0007680187,2.4382048e-06,4.2453536e-05,1.0610716e-08
977,0.9990069,0.0007432584,5.4496395e-05,0.00019513155,1.9580887e-07
978,0.99981445,0.0001777139,9.4213357e-07,6.9326047e-06,1.9364055e-10
979,0.99991846,3.7071855e-05,6.299988e-08,4.4389686e-05,1.7182513e-09
980,0.999276,0.0007096669,3.8208887e-06,1.0555246e-05,1.3695405e-10
981,0.999899,9.3548384e-05,1.6342768e-06,5.764912e-06,1.5988198e-10
982,0.99976736,0.00022496458,3.238055e-07,7.2583516e-06,1.0534413e-09
983,0.9996618,5.0093437e-05,0.00026610986,2.1600752e-05,4.859947e-07
984,0.99785477,0.0015043099,0.00048312845,0.00015652338,1.2536196e-06
985,0.9993248,0.0004499831,3.5728586e-05,0.00018958714,3.0044237e-08
986,0.99986064,6.127018e-05,5.2059957e-05,2.60183e-05,9.270295e-09
987,0.99155104,0.0013428662,0.006267145,0.00078311295,5.5760538e-05
988,0.9988287,0.0011231411,2.650187e-06,4.434465e-05,1.0672215e-06
989,0.99982184,0.00017371803,1.1222947e-06,3.2933458e-06,5.4338256e-11
990,0.98964053,0.0098255165,0.00036872894,0.0001599788,5.1754687e-06
991,0.9388846,0.061089315,1.1299319e-05,1.4815781e-05,3.3422467e-09
992,0.9998896,8.7803935e-05,7.816443e-06,1.4692329e-05,5.9620886e-09
993,0.99976236,0.00023666391,4.5032868e-07,4.848602e-07,3.3583043e-11
994,0.82401294,0.008381897,0.13380764,0.031139718,0.0026578805
995,0.9999436,5.3998643e-05,3.5800045e-07,2.0422221e-06,6.4394645e-10
996,0.9998777,5.8963586e-05,3.095822e-05,3.228822e-05,1.0187152e-09
997,0.9996792,0.00031114125,2.2960394e-06,7.3177184e-06,2.0757895e-09
998,0.9995459,0.00039524413,3.4389774e-05,2.4464201e-05,2.3769031e-08
999,0.99025273,0.008044355,0.00018133598,0.0011660324,0.00035558452
1000,0.99999535,3.601138e-06,5.7901444e-09,1.0531999e-06,4.536407e-12
1001,0.99997413,1.0919741e-05,2.3943126e-06,1.2558696e-05,9.566085e-10
1002,0.9998778,0.000107731124,8.213071e-06,6.255174e-06,7.599398e-10
1003,0.9998598,0.00013186876,2.0408556e-06,6.298141e-06,4.2923484e-11
1004,0.99667966,0.0032699269,2.7650367e-06,4.1214626e-05,6.4159976e-06
1005,0.99946576,0.00044370376,1.853783e-05,7.199932e-05,1.5609076e-09
1006,0.96734035,0.0004681306,9.452107e-06,0.032180164,1.83371e-06
1007,0.99999034,3.9938215e-07,8.359629e-09,9.297349e-06,2.4571675e-12
1008,0.9996049,0.00034525734,1.2899228e-05,3.6995854e-05,2.9245923e-09
1009,0.9995771,0.00020314583,9.600551e-07,0.00021836745,3.5888704e-07
1010,0.9969311,0.0005795526,0.00045087718,0.0020382225,1.8344069e-07
1011,0.9999851,1.4779038e-05,3.711888e-08,1.1630484e-07,2.9589575e-12
1012,0.9997991,0.00017776525,7.720094e-07,2.2342914e-05,6.2479916e-10
1013,0.9998877,0.00010899213,1.6013227e-06,1.79501e-06,1.1418348e-09
1014,0.88093996,0.0536538,0.028322062,0.014300191,0.022783883
1015,0.9860676,0.00035472523,2.7224712e-06,0.013574291,7.147658e-07
1016,0.9999852,1.0487177e-05,9.725056e-07,3.3039419e-06,2.8144444e-13
1017,0.9994823,0.0004520795,1.3844203e-05,5.175764e-05,2.1673234e-09
1018,0.99999917,2.79149e-07,1.1957507e-09,6.076973e-07,4.647669e-13
1019,0.99041474,0.009179436,0.00035602227,4.7336925e-05,2.4734911e-06
1020,0.9999732,2.730227e-06,1.9923093e-08,2.4010937e-05,5.8522416e-11
1021,0.9987263,0.00048289486,0.00034671294,0.0004438726,2.5699526e-07
1022,0.9988979,8.816444e-05,1.5351842e-06,0.0010119784,5.02262e-07
1023,0.92851865,0.07091941,7.983548e-05,7.450734e-06,0.00047463705
1024,0.9962386,0.003141744,5.349809e-05,0.00056610885,1.5839558e-07
1025,0.99981374,6.366897e-07,9.930221e-05,8.616556e-05,2.47546e-07
1026,0.99995065,3.3733625e-06,1.0403061e-05,3.5642774e-05,5.5893246e-10
1027,0.99373806,0.00063746324,0.0054611326,0.00015620652,7.108283e-06
1028,0.994651,0.004302462,0.00061665726,0.0004192482,1.0585402e-05
1029,0.9998394,8.546804e-05,3.7448032e-08,7.510142e-05,7.4394446e-10
1030,0.9999448,5.083897e-05,2.6009477e-07,4.101908e-06,2.3712175e-11
1031,0.97630286,0.011800113,0.0079690125,0.0033808213,0.00054723467
1032,0.53769636,0.3654773,0.027386034,0.06940673,3.3565997e-05
1033,0.9998864,5.4812917e-05,4.8978706e-07,5.829888e-05,1.0503884e-09
1034,0.99974555,0.00023071762,4.50135e-06,1.9164381e-05,1.1464398e-10
1035,0.999097,0.00081412314,3.3026405e-05,5.581298e-05,1.3269247e-08
1036,0.98742014,0.012410585,5.7108147e-05,0.00011219279,1.16545715e-08
1037,0.99956125,0.00041449766,2.2757856e-06,2.1927104e-05,7.748174e-10
1038,0.9996798,0.00030950815,6.177939e-06,4.537749e-06,4.362637e-10
1039,0.99314004,0.006700244,4.486433e-05,0.00011409383,7.122434e-07
1040,0.999892,9.1343405e-05,7.749326e-08,1.6553133e-05,4.4795417e-10
1041,0.9999863,1.3390273e-05,7.53197e-12,3.202326e-07,9.457939e-11
1042,0.99984825,0.00014557295,3.9107667e-07,4.848541e-06,9.347941e-07
1043,0.9999088,7.4620504e-05,1.8340183e-06,1.0162667e-05,4.5552924e-06
1044,0.9995018,0.00048774554,7.267328e-07,9.580225e-06,1.2935104e-08
1045,0.9979405,0.0020069915,2.4045843e-05,2.8421504e-05,4.756069e-08
1046,0.9998312,1.7117773e-05,5.376167e-05,9.789921e-05,2.3865914e-08
1047,0.99997365,2.5403386e-05,3.4613174e-07,5.6847216e-07,3.496683e-10
1048,0.99998426,1.0557661e-05,2.4996728e-08,5.1045527e-06,1.6153927e-10
1049,0.9951639,0.0047537484,5.30838e-05,2.9290453e-05,5.8777125e-09
1050,0.9998691,0.00011607203,8.988048e-06,5.745941e-06,3.2182076e-10
1051,0.9999994,4.2839423e-07,1.5349463e-10,1.323539e-07,4.338384e-15
1052,0.9999845,1.1108744e-05,4.297732e-08,4.4035583e-06,2.3683555e-11
1053,0.99978715,0.00016327464,1.8506516e-05,3.1072046e-05,3.7077466e-10
1054,0.99936074,0.0006058863,9.35522e-06,2.4014545e-05,3.1089753e-09
1055,0.9894043,0.0089041535,0.00051570556,0.0011242195,5.1620715e-05
1056,0.99351656,0.0022200644,0.0033745314,0.00085266895,3.6137255e-05
1057,0.99976593,0.00010296118,1.03760144e-07,0.00013096983,1.0847842e-08
1058,0.9985033,0.00035244215,0.0008469125,8.5925276e-05,0.00021137224
1059,0.9999044,6.684962e-05,1.8178935e-05,1.0561049e-05,6.1479293e-09
1060,0.70602226,0.0060876333,0.2617438,0.026110932,3.5307086e-05
1061,0.9982986,0.0014330389,0.00015520051,0.00011293846,1.8477233e-07
1062,0.99999774,2.0583782e-06,1.2429489e-08,2.5185875e-07,3.4819143e-09
1063,0.96987784,0.028988052,0.0005397871,0.0005790846,1.5249626e-05
1064,0.99986255,0.00012846205,3.0105216e-08,8.902137e-06,9.826195e-10
1065,0.9999689,5.1587944e-07,2.7318334e-09,3.057502e-05,1.6013653e-12
1066,0.99992466,7.0648435e-05,2.0767977e-06,2.534205e-06,6.170827e-11
1067,0.9998036,5.6915927e-05,9.342667e-05,4.5914727e-05,1.543066e-07
1068,0.9994042,0.00056709937,7.664066e-06,2.1089325e-05,1.1885613e-08
1069,0.9613902,0.027732536,0.010197857,0.0006785099,8.827656e-07
1070,0.9989396,5.875361e-06,0.0008510239,0.00020163068,1.9151696e-06
1071,0.99994946,2.7802128e-06,2.8546767e-08,4.776639e-05,3.126686e-11
1072,0.9999758,1.1571518e-05,4.014964e-08,1.258621e-05,2.103597e-12
1073,0.99992096,6.727141e-05,4.0407444e-06,7.774215e-06,5.556545e-11
1074,0.99990535,9.193182e-05,1.7156345e-06,1.0587726e-06,2.4143523e-10
1075,0.9999857,1.206417e-05,7.338369e-07,1.5121537e-06,2.0085489e-13
1076,0.9983699,0.0014036925,0.00021572378,1.0792907e-05,2.107132e-08
1077,0.99896765,0.0010273283,4.971733e-07,4.5327265e-06,6.3583766e-10
1078,0.99975425,0.00023711742,5.2851215e-07,8.054241e-06,5.640957e-10
1079,0.99969196,0.00016874669,0.0001155448,2.3709914e-05,2.6352037e-08
1080,0.99992275,7.571704e-05,4.5638077e-07,1.0801485e-06,2.5514584e-12
1081,0.9998735,7.725951e-05,9.861961e-06,3.939957e-05,3.405596e-10
1082,0.99770266,0.0020455553,1.1541856e-05,0.00023383542,6.421928e-06
1083,0.9992418,0.0007557483,1.6861712e-06,8.197141e-07,5.247503e-10
1084,0.9995053,0.00048350776,1.6461933e-06,9.53232e-06,3.4177332e-09
1085,0.991172,0.0012752371,0.0016515051,0.005624877,0.0002764258
1086,0.9998783,7.97723e-05,3.876e-05,3.1992954e-06,1.924405e-09
1087,0.9999088,5.2668047e-06,1.2884907e-06,8.45949e-05,8.4915336e-10
1088,0.99986076,3.1424526e-05,2.7611048e-07,0.00010750965,2.4162172e-09
1089,0.9974475,0.00089882227,0.0012279552,0.0004212633,4.532256e-06
1090,0.99997926,6.946114e-07,1.3336404e-08,1.9955209e-05,6.1854554e-12
1091,0.9993678,1.7586271e-05,0.0005344893,6.4610846e-05,1.5431808e-05
1092,0.9994123,0.0005314321,3.950545e-05,1.667292e-05,7.3733633e-09
1093,0.9999529,1.0237391e-06,4.35589e-05,2.5065483e-06,5.395104e-08
1094,0.9919292,0.0009601992,1.0502372e-05,0.0070972163,2.969965e-06
1095,0.999959,3.9011826e-05,1.8357386e-07,1.8476196e-06,7.545622e-13
1096,0.9999976,1.9222275e-06,7.592217e-08,1.5710195e-07,1.8269004e-07
1097,0.9999212,7.594603e-05,3.0049455e-07,2.573915e-06,2.0338904e-12
1098,0.99902797,0.0007495557,3.6588125e-07,0.00022206696,1.1495558e-08
1099,0.9041654,0.031405468,0.017264504,0.005291068,0.041873515
1100,0.9986507,0.000108500135,0.0009174858,0.00032068495,2.6286032e-06
1101,0.99998784,9.27845e-06,2.2615319e-09,2.8007607e-06,9.90302e-12
1102,0.9998504,7.431305e-05,2.4241901e-05,5.1069645e-05,2.982935e-08
1103,0.9738607,0.013560767,0.007182798,0.004904216,0.00049152656
1104,0.9997243,1.3813992e-06,0.00013557819,0.00013853493,1.5568273e-07
1105,0.9871023,0.009495025,0.0018071403,0.0014424358,0.00015292506
1106,0.9999702,2.6864209e-05,3.8830805e-08,2.9297817e-06,1.1883347e-11
1107,0.9975666,0.0023287393,4.4374945e-05,6.0272385e-05,2.6186598e-08
1108,0.9999131,7.511075e-05,2.0876037e-06,9.675913e-06,4.4147113e-11
1109,0.9999505,4.8351765e-05,6.472409e-07,4.22546e-07,1.2247632e-11
1110,0.9999516,6.8382906e-06,2.7853315e-05,1.3154918e-05,6.1231e-07
1111,0.9993011,0.000671152,1.123528e-06,2.6689826e-05,8.239959e-09
1112,0.9988153,0.00112447,2.6358686e-05,3.3891283e-05,8.190524e-09
1113,0.99984825,5.4840057e-05,6.895621e-05,2.7900842e-05,3.2454757e-08
1114,0.9996908,8.747734e-05,0.00015854774,6.256101e-05,7.0551255e-07
1115,0.9990233,0.00076654216,5.251367e-06,0.00020067132,4.1620765e-06
1116,0.9958769,0.00038076306,2.6107904e-05,0.0036820397,3.4218123e-05
1117,0.99577266,0.00074786996,0.0013972678,0.0017327945,0.0003495092
1118,0.9999416,5.7923742e-05,2.688251e-07,1.7807133e-07,3.875888e-12
1119,0.9997017,0.00028048584,1.3819148e-06,1.4747174e-05,1.664185e-06
1120,0.9967609,0.0010793471,0.0016272465,0.0005244944,7.9326755e-06
1121,0.3953817,0.335387,0.24389112,0.02531815,2.2042452e-05
1122,0.9998492,3.85396e-07,3.1357584e-05,0.00011905579,4.5109054e-08
1123,0.9990171,0.00027998092,0.0003079975,0.0003947724,1.448171e-07
1124,0.9999578,3.878527e-05,2.9931658e-07,3.186909e-06,9.285132e-11
1125,0.9998092,0.00018490138,7.153477e-10,6.004973e-06,1.2583103e-09
1126,0.9991134,0.00079616875,6.792897e-05,2.2131495e-05,3.0113242e-07
1127,0.99961483,0.00011487646,1.2128947e-05,0.0002557123,2.358805e-06
1128,0.99791235,0.0005870719,2.5837691e-05,0.001469235,5.5255064e-06
1129,0.9990614,0.00087323115,1.4170904e-05,5.125228e-05,1.8424855e-08
1130,0.99913186,0.0007168922,2.30935e-05,0.00012808935,1.1014965e-07
1131,0.9682156,0.00024040796,3.7088278e-06,0.031539924,3.0011796e-07
1132,0.9935656,0.0061764442,8.723682e-06,0.00024915664,1.6437373e-07
1133,0.99967813,9.265272e-05,8.9047353e-07,0.00022836987,1.4875161e-09
1134,0.999984,1.1267244e-05,1.7734259e-08,4.593845e-06,4.1831715e-11
1135,0.99990904,8.277441e-05,3.6058582e-06,4.6329064e-06,7.3990605e-11
1136,0.9875443,0.0010242111,0.002893462,0.00847528,6.2789426e-05
1137,0.9792964,0.020684678,6.0248686e-07,1.7510625e-05,8.5777924e-07
1138,0.99992,1.1445375e-05,4.001917e-05,2.8505785e-05,2.358001e-09
1139,0.99391645,0.0056816004,0.00020285175,0.00019918015,4.628035e-08
1140,0.99987745,0.00012107334,3.318273e-07,1.1158138e-06,4.5871514e-12
1141,0.9999795,1.885984e-05,5.8507243e-08,1.5628e-06,5.409519e-08
1142,0.9998754,6.0094873e-05,2.3948731e-08,6.4444976e-05,4.3709458e-10
1143,0.598654,0.0027213034,0.00463782,0.00042382878,0.39356306
1144,0.9960431,0.0014458421,0.0006205317,0.0018881396,2.4331955e-06
1145,0.9820348,0.0009370189,0.011149289,0.0057727126,0.00010619127
1146,0.99988425,0.00011289508,3.953798e-07,2.2571899e-06,1.9459891e-07
1147,0.9993705,0.0005317663,1.2750717e-06,9.585897e-05,5.668174e-07
1148,0.9997044,0.00017243008,9.1077076e-05,3.1968837e-05,1.0482771e-07
1149,0.99865294,0.0013075996,1.9043833e-05,2.0332793e-05,7.15193e-09
1150,0.9986594,5.330062e-06,1.5486037e-05,0.0013192924,4.614603e-07
1151,0.98390204,0.014152145,0.000653923,0.0012843102,7.676141e-06
1152,0.9998054,0.00018777393,7.450405e-07,6.1582027e-06,2.2901692e-09
1153,0.99991167,2.6045782e-06,1.3740616e-08,8.5679385e-05,4.3039253e-11
1154,0.9969213,0.0030609865,7.442777e-07,1.6918293e-05,2.5279487e-09
1155,0.813817,0.1507137,0.00301292,0.02519905,0.0072574085
1156,0.9986571,0.00065932557,0.00032903222,0.00033397126,2.0631576e-05
1157,0.99850935,7.33296e-05,8.034718e-05,0.0013291383,7.84404e-06
1158,0.9975413,6.830847e-05,0.0016207194,0.0007654649,4.3375444e-06
1159,0.9977202,0.0021395853,0.00012483555,1.535437e-05,3.2545242e-09
1160,0.9997626,0.00023398014,4.94368e-10,3.4674235e-06,2.996009e-08
1161,0.99109685,0.0014946621,0.0061699697,0.0011837973,5.46635e-05
1162,0.97795016,4.2581265e-05,6.89482e-07,0.022006543,9.439362e-08
1163,0.9991078,0.00072071573,8.816001e-05,8.319373e-05,6.704343e-08
1164,0.9810322,0.0054323664,0.010408467,0.002288521,0.000838576
1165,0.99834025,0.0016374486,1.23601285e-05,9.892752e-06,1.2546254e-08
1166,0.9989392,0.0009547064,8.442973e-05,2.0865742e-05,8.6385523e-07
1167,0.9998852,1.9866788e-05,9.9394e-07,9.3914205e-05,2.0860309e-08
1168,0.99852043,0.0012799898,8.623567e-05,0.00011336545,5.195218e-08
1169,0.99994636,5.0233957e-05,2.4978506e-06,9.668813e-07,2.8684133e-10
1170,0.9699873,0.026467513,0.002153762,0.0007146493,0.00067691546
1171,0.9986406,0.0009942009,0.00011923562,0.00023717087,8.866752e-06
1172,0.99623716,0.0037541073,4.4152657e-06,4.312776e-06,2.3397462e-09
1173,0.98829216,0.011692126,2.8286888e-07,1.5419262e-05,4.5673816e-09
1174,0.9998518,2.5455432e-07,7.6333505e-05,7.157076e-05,4.7120256e-08
1175,0.9999682,2.9187138e-05,8.136103e-09,2.6646924e-06,2.8241213e-11
1176,0.99636096,0.0013875202,0.0022122567,3.9024973e-05,2.4339636e-07
1177,0.9951871,0.0037858041,0.00014215182,0.0008729057,1.2067542e-05
1178,0.9999825,9.045354e-07,4.9971795e-06,1.1628392e-05,1.3903936e-09
1179,0.9998253,0.00017178155,1.4936849e-07,2.8429583e-06,1.638463e-10
1180,0.999835,9.227343e-05,9.385922e-08,7.263778e-05,7.369912e-10
1181,0.99995863,3.8974293e-05,2.69936e-10,4.4300876e-07,1.9147483e-06
1182,0.9998795,0.00011131867,1.11959224e-07,9.0376325e-06,1.4160915e-10
1183,0.99797267,0.0012888019,0.00025255076,0.00047522646,1.0882504e-05
1184,0.99996674,3.0849158e-05,4.7398396e-10,1.3633853e-06,1.0832103e-06
1185,0.9717794,0.026009606,1.9619072e-05,0.00090375636,0.0012876188
1186,0.99784386,0.0014875536,0.0001430994,0.0005101457,1.533359e-05
1187,0.9939845,0.0047631483,0.00041712297,0.0008188825,1.6401253e-05
1188,0.99988914,0.00011002074,6.7159016e-07,1.2732946e-07,1.0438017e-11
1189,0.9998369,0.00012818181,2.6726057e-06,3.2307416e-05,6.5276895e-09
1190,0.9995122,0.00046857938,3.1592465e-06,1.6023916e-05,1.0218201e-08
1191,0.999819,0.00017974459,9.563959e-07,3.8569652e-07,5.751798e-10
1192,0.33346695,0.010006899,0.019614287,0.00047022718,0.63644165
1193,0.9995876,0.0003291309,2.9844915e-07,3.5941146e-05,4.7037567e-05
1194,0.99967706,0.00023411926,3.5665522e-05,5.3123946e-05,2.6612972e-09
1195,0.9998826,0.00010308864,1.1040897e-05,3.2338867e-06,4.717867e-10
1196,0.9999527,2.5803063e-05,9.031556e-06,1.25048255e-05,3.0753022e-09
1197,0.99996984,2.978935e-05,1.1635443e-07,2.8361478e-07,2.9321715e-11
1198,0.9998741,0.00012178212,2.4912044e-06,1.5809527e-06,1.1692023e-09
1199,0.9999187,1.1712299e-05,2.6997453e-05,4.2671203e-05,2.3542497e-09
1200,0.99996054,3.236288e-05,1.3385217e-07,6.981058e-06,2.1565662e-11
1201,0.999493,0.00036387,9.336096e-05,4.9604874e-05,6.678958e-08
1202,0.99897444,0.0006871549,0.00018047662,0.00015787155,9.123673e-08
1203,0.999984,6.746982e-07,2.8596583e-06,1.2389042e-05,7.0326484e-10
1204,0.99981576,0.0001357747,2.2490916e-08,4.8510035e-05,6.057159e-09
1205,0.997227,0.0021591138,8.117973e-05,0.00053012045,2.5767513e-06
1206,0.9999267,7.055809e-05,6.4444276e-07,2.1244425e-06,6.392894e-12
1207,0.99705625,0.0014216817,0.00018226834,0.00129895,4.0899202e-05
1208,0.9985232,0.00023374312,0.0006108747,0.00061583903,1.6308293e-05
1209,0.99666256,0.0032210865,1.533919e-05,0.00010082396,6.1019904e-08
1210,0.99350893,0.00063926575,3.415317e-05,5.4276803e-05,0.0057633203
1211,0.9999175,8.15397e-05,5.5425755e-07,4.321439e-07,1.6139115e-10
1212,0.99673367,0.0003635107,0.00024613252,0.0026403305,1.6369999e-05
1213,0.9964748,0.00075742434,0.0013820598,0.001358754,2.6977566e-05
1214,0.87084043,0.124873534,0.0024689697,0.001672822,0.00014427428
1215,0.999496,0.00040529048,2.6424527e-06,9.571826e-05,2.9787074e-07
1216,0.99958843,0.0003870572,2.0340772e-06,2.2561273e-05,4.3946513e-09
1217,0.9993445,0.00032567576,1.8319322e-05,0.00031105077,3.3441393e-07
1218,0.99989283,5.666158e-05,2.3482256e-08,3.3326066e-06,4.7247668e-05
1219,0.995269,0.0047091707,8.211841e-07,2.0981624e-05,6.9927135e-09
1220,0.99946266,0.00026719138,1.7501593e-06,0.000268308,1.2678299e-08
1221,0.9998548,9.527069e-05,9.627249e-06,4.032592e-05,3.1645382e-09
1222,0.9994765,0.00049863185,1.8113555e-05,6.832272e-06,1.736989e-08
1223,0.99856913,0.000507374,0.0003850405,0.0005381341,3.5486156e-07
1224,0.9998443,0.00011777944,4.219076e-07,3.75129e-05,1.7250459e-09
1225,0.9965205,0.0034417713,2.651e-05,1.1134807e-05,8.050714e-08
1226,0.99934167,0.0006317063,1.8402294e-06,2.4719166e-05,1.293641e-08
1227,0.99976426,0.00021071015,2.872139e-06,1.6085978e-05,6.0949956e-06
1228,0.9997819,0.00019439918,9.930193e-06,1.3741448e-05,1.7688398e-10
1229,0.99984884,3.1479074e-05,7.743375e-05,4.207652e-05,6.640351e-08
1230,0.9513234,0.008680313,0.0396501,0.0003441381,2.0023285e-06
1231,0.9984333,0.0015365264,6.4298247e-06,2.3681101e-05,8.906981e-09
1232,0.80408895,0.19504921,0.00010633304,0.0007450424,1.0451765e-05
1233,0.99999034,3.6744125e-06,1.8588313e-10,7.54821e-08,5.849812e-06
1234,0.9988557,0.0011248041,1.5495629e-05,4.0373598e-06,8.04884e-09
1235,0.9999131,8.372579e-05,8.679833e-07,2.3605442e-06,8.213798e-10
1236,0.9854139,0.012617261,0.0017565166,0.00019485143,1.7414068e-05
1237,0.9999732,1.6952308e-07,6.310504e-09,2.6686692e-05,7.9688757e-13
1238,0.99982077,0.00013558596,5.812321e-06,3.7807742e-05,1.9860928e-10
1239,0.9997402,0.0002527022,1.8966051e-06,5.2876408e-06,1.10162955e-10
1240,0.99395835,0.00597621,4.936313e-05,1.5559439e-05,4.2079336e-07
1241,0.9975751,0.00015743871,0.0019897127,0.00024694338,3.074663e-05
1242,0.9997136,5.9468985e-06,4.5717255e-07,0.00027995708,1.550464e-08
1243,0.9992519,0.00065449305,5.9420886e-06,8.188576e-05,5.83776e-06
1244,0.99999344,4.986861e-06,5.889055e-07,3.2918243e-07,5.9252784e-07
1245,0.9986401,0.0010358082,5.538701e-05,0.00026854576,1.0024495e-07
1246,0.99999917,3.3503403e-07,1.0462478e-09,5.282354e-07,8.1162434e-15
1247,0.99987984,0.00011539273,7.12096e-07,4.010622e-06,1.544441e-11
1248,0.99600524,0.003968411,1.9153484e-05,7.1925438e-06,2.5638004e-08
1249,0.9580203,0.041220743,0.0004730233,0.00023440126,5.147374e-05
1250,0.9998273,0.00017021393,1.4838351e-06,1.0301169e-06,3.191725e-11
1251,0.99203765,0.0071098926,0.00018445923,0.00066746306,4.6282355e-07
1252,0.99837387,0.000110547204,3.55126e-05,0.0014553806,2.4627634e-05
1253,0.99993205,4.4353645e-05,6.7455595e-08,2.3546361e-05,4.2936185e-10
1254,0.9998772,0.000112121124,2.231275e-06,8.35703e-06,3.780608e-11
1255,0.99996233,3.701283e-05,3.115458e-07,4.6090142e-07,3.202597e-11
1256,0.9995196,0.00028082333,2.0296238e-06,0.00019752022,5.3408242e-09
1257,0.99761814,0.0013009865,7.522925e-06,2.4775194e-05,0.0010483958
1258,0.98839253,0.009550924,0.001201218,0.00082637084,2.9011082e-05
1259,0.9528728,0.046048377,0.0004607468,0.00055858935,5.9490547e-05
1260,0.9992163,0.0004151554,8.1418775e-06,0.00036037917,5.152422e-08
1261,0.9925718,0.0073960973,2.8964567e-05,2.9516398e-06,2.3351762e-07
1262,0.998137,0.0017830007,4.942267e-05,3.009914e-05,4.2996732e-07
1263,0.9894537,0.010484044,2.0720934e-05,4.139579e-05,7.771648e-08
1264,0.99339724,0.0064325496,6.731318e-06,0.00016320069,1.9428923e-07
1265,0.9995229,0.00039851823,5.146633e-05,2.7110922e-05,3.0041654e-08
1266,0.974427,0.02174341,0.0031773744,0.00058808655,6.412975e-05
1267,0.99975806,0.00017414716,3.9364613e-06,6.387665e-05,1.4295052e-08
1268,0.9999665,1.5714219e-05,8.4429026e-08,1.7726232e-05,1.3588772e-11
1269,0.99950993,7.192089e-05,0.00038598734,3.1342344e-05,6.814888e-07
1270,0.9994325,0.000515876,2.1009182e-05,3.062196e-05,3.3327263e-09
1271,0.9998648,1.1558251e-06,0.00011227756,1.3970603e-05,7.738098e-06
1272,0.9991085,0.00078454724,9.674045e-05,1.0242516e-05,1.6838781e-08
1273,0.99957544,0.00042300232,5.952345e-08,1.4718385e-06,7.871874e-11
1274,0.99935323,0.00055199757,7.478437e-05,2.0027433e-05,2.0736973e-08
1275,0.99999,1.0888596e-06,6.9609605e-06,1.990757e-06,2.4404361e-08
1276,0.99913377,4.3836612e-06,4.768668e-06,0.0006028616,0.00025421113
1277,0.9981103,0.00057662104,0.0010248944,0.00026466476,2.3566667e-05
1278,0.99983954,0.00015433712,7.1472465e-07,4.481888e-06,7.894196e-07
1279,0.9997558,0.00023499067,1.4415673e-06,7.779213e-06,2.2904696e-10
1280,0.9997503,0.00023382535,3.0583105e-06,1.2833588e-05,9.876268e-11
1281,0.9994809,2.8413031e-05,0.00010337491,0.00037417366,1.3254303e-05
1282,0.9974171,0.0021073406,2.1183116e-05,0.0004540812,3.7379314e-07
1283,0.99916935,0.0006745496,0.00010694697,4.894172e-05,2.0301964e-07
1284,0.99966955,0.00013551557,8.250125e-05,0.000107640604,4.8121333e-06
1285,0.99686486,0.0031085918,1.886477e-05,7.616417e-06,1.40169725e-08
1286,0.3716822,0.093384765,0.52271163,0.008257286,0.003964089
1287,0.9237437,0.07586834,0.00034736356,3.2425956e-05,8.1420285e-06
1288,0.99997556,1.5783884e-05,5.9830245e-06,2.7007884e-06,1.7046056e-10
1289,0.9994603,8.617898e-05,0.0003314639,0.000121936326,2.0115587e-07
1290,0.99936765,0.00060079683,2.4896265e-08,3.1494514e-05,3.7453855e-08
1291,0.9996563,1.5097452e-06,8.326632e-05,0.00025874493,1.08904615e-07
1292,0.9990681,0.00090966123,8.776371e-06,1.3373411e-05,8.198979e-08
1293,0.86419094,0.07779111,0.015135449,0.03608788,0.006794643
1294,0.99987614,8.051633e-05,2.871813e-05,1.4511203e-05,5.5792295e-09
1295,0.9997702,7.325127e-05,0.00011495942,4.144384e-05,1.2531e-07
1296,0.9999994,2.1295282e-08,5.3929317e-10,6.0926715e-07,1.5477737e-13
1297,0.99573565,0.003205595,0.0008434784,0.00014923076,6.604442e-05
1298,0.99992514,7.240232e-05,1.3716464e-06,1.1582121e-06,1.7654039e-12
1299,0.9998418,0.00015222606,1.3386788e-06,4.603953e-06,2.0637755e-11
1300,0.9996288,0.00027061807,6.7921865e-06,9.3728275e-05,1.7560431e-08
1301,0.99993634,3.5453235e-05,1.1322384e-07,2.8166647e-05,6.078361e-10
1302,0.99971896,0.00021671188,4.038913e-07,6.384182e-05,8.337988e-08
1303,0.9999745,1.1289412e-05,2.565253e-09,1.4149026e-05,2.2043596e-11
1304,0.98704845,0.012058122,0.00017723869,0.0007024096,1.378039e-05
1305,0.99999094,8.996982e-06,5.3357383e-08,9.3795805e-08,9.699656e-13
1306,0.9989753,0.0010028515,1.1820237e-05,1.0066752e-05,5.845158e-09
1307,0.99998915,1.06713715e-05,3.251876e-08,2.9833377e-08,2.3893138e-12
1308,0.9985815,0.0014152803,2.5207681e-08,3.211444e-06,2.839638e-10
1309,0.9999678,1.969932e-05,3.830417e-08,1.2522056e-05,2.0537066e-12
1310,0.9994848,0.0004857792,1.0780628e-05,1.864629e-05,2.745342e-09
1311,0.9999356,5.9865557e-05,1.4574263e-06,3.0720826e-06,3.6769397e-11
1312,0.99994373,6.6930997e-06,6.741728e-08,4.9537728e-05,4.144411e-09
1313,0.99950457,1.30319495e-05,2.2032789e-06,0.00048008226,6.376621e-08
1314,0.7681183,0.0637091,0.16530484,0.0024702095,0.0003974758
1315,0.98897856,0.01099377,2.3494329e-05,3.7322336e-06,4.7493805e-07
1316,0.9997843,0.00021238504,1.0062877e-06,2.3709151e-06,8.314143e-11
1317,0.9947385,0.0051830173,6.924316e-05,9.010384e-06,2.7276684e-07
1318,0.99827623,0.0017082515,1.1718492e-05,3.7927723e-06,1.4599935e-08
1319,0.99967253,0.00024635516,1.2907656e-05,6.7603876e-05,6.2862006e-07
1320,0.9997881,7.534706e-07,5.7747573e-05,0.00015336259,7.170476e-08
1321,0.9980019,0.0008883995,0.0005438431,0.00013668284,0.0004292743
1322,0.9996729,9.221078e-07,0.00011326923,0.00021261611,1.7989021e-07
1323,0.9985399,0.0007778082,0.00031860493,0.00036326362,4.5573353e-07
1324,0.9987036,0.0012232772,2.8819743e-05,4.4320153e-05,1.7551843e-08
1325,0.999795,6.9156806e-05,2.371333e-07,0.00013562346,2.2262116e-08
1326,0.9998043,0.00014844905,2.5412675e-05,2.1738648e-05,1.3377045e-08
1327,0.9945539,0.0054186364,5.209067e-06,2.2216715e-05,1.3385709e-08
1328,0.98767126,0.002177326,0.009497471,0.0005785803,7.530384e-05
1329,0.9983107,0.0013146695,0.00033317567,4.05756e-05,8.317382e-07
1330,0.9996697,0.0003201286,7.995887e-06,2.1938338e-06,3.527986e-10
1331,0.99922216,0.000403743,0.00023727595,0.00013319078,3.6750403e-06
1332,0.9996463,0.00034476185,7.8345647e-07,8.124195e-06,2.0650122e-09
1333,0.99892175,0.001025641,2.6250033e-05,2.6327203e-05,4.8236398e-08
1334,0.9999677,3.010765e-05,1.5645919e-10,3.3993933e-07,1.7438412e-06
1335,0.99990463,8.312444e-08,2.3617255e-05,7.165622e-05,5.757211e-09
1336,0.9994293,0.0004869301,2.1085772e-05,6.265689e-05,3.5723393e-09
1337,0.9999527,4.5693403e-05,1.0273184e-06,6.2898454e-07,9.861136e-11
1338,0.9983676,0.00023015848,0.0010952281,0.00030023133,6.8079466e-06
1339,0.9909197,5.4760843e-05,2.9719195e-07,0.009025063,7.484052e-08
1340,0.9978521,0.001908532,0.00020469398,3.4590437e-05,1.2868247e-07
1341,0.99982244,0.00017185495,6.191972e-07,4.8661523e-06,2.945699e-07
1342,0.99826825,0.0017129419,8.569006e-06,1.0290155e-05,1.0416435e-09
1343,0.99978465,0.0001399708,5.870671e-06,6.9447626e-05,7.105321e-08
1344,0.99988735,1.4439978e-05,7.495553e-05,1.9926581e-05,3.3442666e-06
1345,0.99997616,2.3317674e-05,2.737111e-07,2.5967734e-07,2.505673e-11
1346,0.9999869,1.181863e-05,4.139838e-07,9.346857e-07,6.721827e-14
1347,0.9990995,0.00089051126,9.797271e-07,9.052934e-06,1.4100034e-09
1348,0.999838,1.2031545e-06,0.00014752724,1.2659649e-05,6.1095375e-07
1349,0.99541986,0.0042521413,0.00016616874,0.00016052999,1.2731963e-06
1350,0.9999112,7.999341e-05,7.6804246e-10,1.1609584e-06,7.674539e-06
1351,0.9999759,1.7271828e-05,2.6069747e-06,4.1764915e-06,4.1635164e-11
1352,0.99954283,0.00014277767,1.8142305e-06,0.00031264452,3.071939e-08
1353,0.99601114,0.0038148519,0.00010815011,6.5629014e-05,1.9688142e-07
1354,0.9996902,0.00010003633,5.213332e-08,9.979834e-06,0.00019984222
1355,0.9995592,0.000324036,1.6447365e-06,0.000114930335,2.2172706e-07
1356,0.9997427,4.557015e-05,0.0001608863,1.8224175e-05,3.2691085e-05
1357,0.99980277,0.00012743125,3.8556525e-05,2.9801902e-05,1.4452747e-06
1358,0.9997365,0.00021168274,1.3160832e-05,3.8627757e-05,4.6408597e-09
1359,0.9993333,0.00016383648,0.0002533883,0.0002455678,3.9886995e-06
1360,0.9914492,0.0058331136,0.00021061783,0.0024858702,2.121237e-05
1361,0.94232297,0.05590884,0.0015302026,0.00023270368,5.3834906e-06
1362,0.99947256,0.00047415437,1.7836792e-05,3.5440913e-05,1.1231625e-08
1363,0.9974119,0.0023758279,4.5018282e-06,0.00020774032,5.612172e-08
1364,0.99999774,1.1489968e-07,6.0132255e-09,2.1477606e-06,2.7825348e-12
1365,0.9994679,0.00048685414,3.9565035e-05,5.7468405e-06,5.9130073e-08
1366,0.99987876,8.012611e-05,2.782421e-05,1.3353613e-05,4.1151402e-09
1367,0.999529,2.0889802e-06,0.00025831457,0.00020948656,1.1199669e-06
1368,0.99994814,3.22737e-06,3.9019924e-05,9.574381e-06,4.0755346e-08
1369,0.9998872,5.649745e-05,7.534195e-09,1.7319505e-06,5.4518365e-05
1370,0.9999454,3.085771e-05,7.5548783e-06,1.6179922e-05,1.4404099e-08
1371,0.99980015,0.000120031844,2.967318e-07,7.959182e-05,1.0574371e-10
1372,0.9999784,1.955693e-05,7.2573886e-07,1.2676534e-06,8.4283844e-14
1373,0.98844993,0.009323317,0.0020335682,0.00016444128,2.8610242e-05
1374,0.9999552,4.4225588e-05,3.188297e-07,2.894731e-07,1.1579861e-10
1375,0.9995402,0.0004254526,1.793653e-05,1.6344671e-05,1.6611215e-09
1376,0.9999602,1.208403e-06,4.330938e-06,3.4345645e-05,4.713484e-10
1377,0.9999391,5.4997457e-05,1.6273698e-06,4.3118557e-06,3.1122317e-11
1378,0.9999057,5.5776076e-05,2.5158331e-05,1.3291108e-05,1.4736148e-09
1379,0.99921966,0.00063823746,8.3075385e-05,5.89913e-05,3.6714262e-08
1380,0.99998903,2.2794209e-06,1.6410562e-09,8.759031e-06,5.9793e-12
1381,0.9998287,2.7964813e-07,6.785545e-05,0.00010299141,1.8100835e-07
1382,0.9998241,3.634581e-05,9.9233934e-05,4.0367348e-05,1.0463764e-08
1383,0.9958234,0.003307233,0.0006344034,0.00023257574,2.514935e-06
1384,0.9990305,0.00088547135,4.1293246e-05,4.263346e-05,6.1862735e-08
1385,0.9984066,0.0015427186,2.478371e-05,2.5955376e-05,1.2562725e-08
1386,0.9998253,3.6388684e-07,9.757909e-05,7.661913e-05,1.6679857e-07
1387,0.99962556,0.00020763252,2.6791358e-05,0.00013895192,1.1178939e-06
1388,0.99999285,4.5700485e-06,3.3399257e-07,9.913414e-07,1.332048e-06
1389,0.9956067,0.00436285,2.231489e-05,7.861919e-06,1.8622751e-07
1390,0.99913496,0.00083429937,4.3057165e-07,3.028855e-05,1.1076005e-08
1391,0.99854976,0.0012150725,0.000111326175,0.00012382101,4.7278563e-09
1392,0.99997723,2.2476977e-05,1.2877514e-07,6.5607146e-08,5.7964063e-12
1393,0.9996636,3.0927135e-05,1.5466625e-07,3.7661798e-06,0.00030152607
1394,0.97909284,0.02041024,0.00027880186,0.0002130537,5.0535555e-06
1395,0.9999788,1.8141247e-05,4.0494283e-09,3.0647825e-06,2.1609897e-12
1396,0.97901374,0.018608613,0.001752769,0.000602311,2.2563292e-05
1397,0.9971488,0.0027520305,4.575426e-05,5.3308002e-05,1.3152894e-07
1398,0.9998839,6.600968e-05,1.6375323e-05,3.3640958e-05,9.8963e-10
1399,0.99815995,0.0017417383,5.6860303e-05,4.1358668e-05,1.7537681e-07
1400,0.98917305,0.00028612022,1.3225454e-06,0.010538824,6.5661953e-07
1401,0.9994875,0.0004206302,7.9851394e-05,1.1981519e-05,2.1379305e-08
1402,0.99683493,0.0002321369,0.0013461107,0.0015720432,1.4797746e-05
1403,0.9989992,0.0006318082,0.00020499516,0.0001639658,1.6859988e-07
1404,0.99996626,6.7397914e-06,1.35581695e-05,1.3312209e-05,8.7580375e-08
1405,0.99998987,7.83124e-06,8.5878895e-09,2.2978375e-06,1.504069e-11
1406,0.9995913,3.937098e-05,0.00035604642,4.465085e-06,8.960537e-06
1407,0.99999845,1.3508509e-06,5.5265634e-08,1.2890123e-07,1.6693814e-08
1408,0.99997485,2.2711032e-05,2.7279876e-08,2.3615569e-06,1.3714657e-10
1409,0.9999509,4.6406465e-05,2.0621821e-06,7.024825e-07,4.6093473e-11
1410,0.9992549,0.0005384107,3.6833926e-06,0.00020237658,5.9254603e-07
1411,0.99979466,0.00018058019,1.5841819e-08,2.4778932e-05,2.9254393e-08
1412,0.9980301,0.0005908,0.0005242386,0.000854384,4.1290156e-07
1413,0.9999598,3.8658425e-05,1.0470082e-07,1.3878564e-06,2.304981e-13
1414,0.9982134,0.00048800677,0.0005299805,0.00076826836,3.4456457e-07
1415,0.99901533,0.00032026463,0.0002207489,0.0004434966,7.104919e-08
1416,0.99971694,0.00025249805,6.389617e-08,3.0165938e-05,2.3525563e-07
1417,0.9998286,0.00016252157,2.139023e-06,6.6415405e-06,2.4175872e-09
1418,0.99931085,0.00015361588,0.00012626256,0.0004060874,3.0684478e-06
1419,0.9952219,0.0047692396,7.149221e-06,1.7646338e-06,6.2446737e-09
1420,0.9999553,3.1877295e-05,3.1540047e-08,1.2843126e-05,4.0149806e-12
1421,0.9985891,0.00096248055,0.00016444712,0.00028357713,3.5618214e-07
1422,0.9996232,0.0003566721,2.0781247e-06,1.7069144e-05,9.039897e-07
1423,0.999995,4.4030835e-06,3.3968866e-11,7.2712844e-08,4.6426396e-07
1424,0.986754,0.00039980726,2.8277348e-06,0.012842032,1.3409873e-06
1425,0.99992836,4.4062366e-05,9.2096525e-07,2.6654569e-05,7.412598e-10
1426,0.9999263,4.8256945e-05,4.5738125e-06,2.078518e-05,2.7154392e-11
1427,0.9990081,0.0008874284,2.8923921e-05,7.548909e-05,1.5260968e-08
1428,0.99994624,4.3998447e-05,3.270931e-07,9.470708e-06,1.184686e-10
1429,0.99873084,0.00044516378,0.0003510475,0.0004726902,2.4236056e-07
1430,0.857695,0.019408468,0.11570035,0.0038601593,0.0033359313
1431,0.9956749,0.0043210913,1.1016243e-07,3.954823e-06,4.5784307e-10
1432,0.689033,0.2879923,0.016018648,0.004285825,0.0026702723
1433,0.99874216,0.0008667817,0.00018852958,0.00020238639,2.8861174e-07
1434,0.99190885,0.0047102817,0.0026293206,0.00073552254,1.594176e-05
1435,0.99651235,0.0004754257,0.0026908692,0.00031467385,6.621993e-06
1436,0.99838066,0.00045703634,0.00037246605,0.0007896884,1.12089666e-07
1437,0.999688,0.00010967609,5.1190455e-07,0.00020086726,9.491329e-07
1438,0.9996705,0.0001657348,5.3838903e-07,0.00016317389,2.391963e-08
1439,0.9999298,2.2729553e-05,2.1381108e-07,4.726145e-05,1.408996e-10
1440,0.98989993,0.010079674,1.8863258e-05,1.4000153e-06,7.717957e-08
1441,0.9921875,0.004337697,9.250479e-05,0.0033680815,1.417087e-05
1442,0.11689596,0.00039951014,0.0042652213,4.1413117e-05,0.87839794
1443,0.9992749,0.00061455776,3.7328457e-05,7.3270785e-05,1.2952433e-08
1444,0.9993224,2.4435181e-05,3.110243e-06,0.00065007515,3.5639832e-08
1445,0.99939144,0.0005906509,3.491686e-08,1.7822204e-05,2.6432179e-09
1446,0.99988663,0.0001108785,9.677857e-07,1.494129e-06,2.936886e-11
1447,0.99446267,0.0047464906,1.3957422e-05,0.00076467864,1.2204221e-05
1448,0.9883222,0.006959413,0.0036295077,0.00037734988,0.00071152474
1449,0.9985831,0.0007051581,0.0006650896,7.0261594e-06,3.9627124e-05
1450,0.99958163,0.00024901814,7.461629e-05,9.424452e-05,4.3945002e-07
1451,0.99996054,3.343738e-05,3.61921e-07,5.5673245e-06,3.6218492e-10
1452,0.9999738,2.4038283e-05,7.6698495e-07,1.3364966e-06,1.4701979e-12
1453,0.99414825,0.004442683,0.0009186085,0.00049019116,3.203225e-07
1454,0.9999492,1.4040518e-05,1.8059864e-06,3.4921413e-05,1.6914514e-09
1455,0.99998164,1.7554366e-05,4.5792223e-07,3.5959118e-07,2.0375077e-12
1456,0.9997763,0.00019731504,1.6360953e-08,2.0509867e-06,2.4285295e-05
1457,0.9994331,0.00049082126,1.4701483e-05,6.130715e-05,2.0626125e-08
1458,0.9999372,1.4488586e-06,5.961567e-08,6.136651e-05,1.7826057e-10
1459,0.9971988,0.0026038615,7.59664e-05,0.000116111216,5.225211e-06
1460,0.9992679,0.0006930044,1.5928792e-05,2.3185274e-05,9.630524e-09
1461,0.99966204,0.00028556833,7.3578053e-07,5.173867e-05,1.866752e-08
1462,0.99995303,5.2743258e-06,1.2866352e-07,4.1606036e-05,2.4186342e-10
1463,0.999099,0.00089405675,4.028926e-06,2.8926124e-06,1.4230036e-09
1464,0.99996245,3.8442263e-06,9.978783e-06,2.3760702e-05,1.8958861e-09
1465,0.9999908,2.2464603e-06,8.863583e-09,6.9396956e-06,3.4710814e-13
1466,0.999979,3.984967e-06,8.151163e-06,8.935523e-06,2.1419244e-09
1467,0.9993654,5.2086052e-05,0.0005632087,1.5770598e-05,3.5271007e-06
1468,0.99998474,1.4805666e-05,3.0232806e-07,5.3326527e-08,1.1509526e-07
1469,0.99838054,0.0015815033,2.943828e-05,8.492863e-06,4.5166594e-08
1470,0.9848304,0.012180444,0.0007999195,0.0019085179,0.00028068208
1471,0.9813557,0.0013605829,1.8452529e-05,0.017259337,5.9901563e-06
1472,0.9949628,0.00025252756,4.771912e-05,0.0046432293,9.3648676e-05
1473,0.996781,0.0031028113,2.635046e-06,0.00011353984,3.3615915e-08
1474,0.99997973,9.574978e-07,1.873313e-05,4.611499e-07,6.716225e-08
1475,0.99730635,0.0026755289,1.265082e-05,4.0123764e-06,1.4384893e-06
1476,0.9963018,0.003694249,8.990389e-08,3.8291305e-06,2.4092237e-10
1477,0.99984574,0.00014440763,8.7580176e-08,9.645008e-06,5.147939e-10
1478,0.999997,1.2397624e-06,1.1284515e-08,1.7967016e-06,3.0439204e-12
1479,0.9999689,2.312558e-06,2.5945823e-08,2.8847422e-05,2.4877728e-11
1480,0.999941,2.9354208e-06,5.282012e-05,3.0387182e-06,1.4537409e-07
1481,0.9997793,0.00017158192,3.4518438e-05,1.4540964e-05,1.955513e-08
1482,0.99941444,0.00034206233,0.00015145796,9.182431e-05,1.9323765e-07
1483,0.99936825,1.037351e-05,1.14382296e-07,0.0006212812,5.885476e-10
1484,0.9999989,9.925556e-07,8.654168e-09,5.855326e-08,6.30216e-10
1485,0.99934536,0.00036551687,8.375307e-05,0.0002053729,1.3385041e-08
1486,0.99776053,0.0007517924,0.0011160984,0.00036310992,8.499788e-06
1487,0.99707294,0.0019064136,0.00058460643,0.00043578394,2.1229692e-07
1488,0.9966524,0.0033449512,1.6442607e-07,2.4751764e-06,1.6973635e-10
1489,0.9991398,0.00075412367,7.8781495e-06,9.828262e-05,2.8844855e-08
1490,0.9991721,8.768187e-05,0.0006069987,0.00012634476,6.913603e-06
1491,0.99999654,3.288927e-06,1.0471159e-08,1.2927278e-07,1.5129824e-13
1492,0.99834406,6.7021388e-06,3.3311498e-08,0.0016492829,8.780894e-09
1493,0.9989309,0.00061392685,4.0266797e-05,0.00041385362,9.14504e-07
1494,0.9963785,0.003614771,2.521159e-07,6.506274e-06,7.061374e-10
1495,0.99885356,0.0011127193,1.5410913e-05,1.8345349e-05,3.6036822e-09
1496,0.99982065,4.5483e-05,9.618233e-05,3.767395e-05,3.069682e-08
1497,0.99992096,7.4950985e-05,6.8512117e-07,3.3498982e-06,8.1365765e-12
1498,0.99381644,0.0023077778,0.0025559012,0.0012974332,2.2520464e-05
1499,0.99664223,0.0032390347,8.264754e-05,3.5727648e-05,3.1585182e-07
1500,0.99997175,1.7883788e-06,3.228828e-08,2.6428195e-05,2.7161207e-12
1501,0.99974865,0.00016562072,4.351563e-05,4.2227584e-05,2.6076526e-08
1502,0.9991787,0.0007948696,1.1404607e-05,1.5087556e-05,1.3605878e-08
1503,0.99582964,0.001205194,0.00036644324,0.0025394694,5.9289967e-05
1504,0.90476084,0.006452657,0.0068212133,0.0005120386,0.08145326
1505,0.99517655,0.004023053,0.00042720244,0.0003720643,1.148921e-06
1506,0.9999683,2.8509474e-05,7.452771e-07,2.255056e-06,1.9389628e-07
1507,0.99940836,5.6437843e-06,6.606053e-08,0.00058598915,1.1633518e-08
1508,0.99904746,0.0008983408,1.308513e-05,4.108129e-05,2.2253957e-08
1509,0.9931452,0.0068420083,5.792229e-07,1.2219732e-05,3.5073424e-09
1510,0.9987116,0.0010654182,6.685455e-05,0.00015613635,2.5208946e-08
1511,0.9959312,0.00359917,0.000371249,9.699505e-05,1.3950141e-06
1512,0.9992575,0.0006662882,8.743112e-06,6.7534194e-05,2.1253848e-08
1513,0.99992263,7.328844e-05,7.2779767e-07,3.362367e-06,8.534558e-12
1514,0.99961406,0.00035317053,2.4056887e-06,3.0314404e-05,1.7896503e-09
1515,0.9996171,0.00032154127,3.7292626e-05,2.4110259e-05,7.672489e-09
1516,0.99927515,0.00024269476,1.0666711e-05,0.0004715548,2.7025333e-08
1517,0.999856,0.00013988459,3.2908715e-06,7.438515e-07,1.6427065e-10
1518,0.9976949,0.00012635157,1.2408267e-05,0.0021640963,2.3127934e-06
1519,0.99999034,7.938358e-06,5.758545e-07,1.0352489e-06,7.747198e-14
1520,0.9987239,0.0003966768,1.0786031e-05,0.00086705654,1.5874599e-06
1521,0.9981287,0.0018630184,1.1702002e-06,7.123836e-06,1.253367e-08
1522,0.9684134,0.0310004,0.00053342007,3.4427187e-05,1.8309527e-05
1523,0.9976133,0.0022890538,8.2215745e-05,1.52198445e-05,2.8929904e-07
1524,0.9979044,6.9225684e-06,0.0019144164,0.00017162034,2.6192995e-06
1525,0.98860836,0.00013987665,1.2331537e-06,0.011250412,1.6946079e-07
1526,0.99987376,4.762051e-05,5.8866126e-06,7.251372e-05,1.062928e-07
1527,0.99994075,5.205911e-05,2.5407433e-06,4.6091404e-06,1.9029221e-11
1528,0.99920875,0.00076459907,2.5103934e-06,2.413666e-05,7.4362725e-09
1529,0.9990159,5.5691035e-06,0.000807167,0.0001710733,1.9694613e-07
1530,0.9948349,0.0050922255,1.5680596e-05,5.696632e-05,2.4929543e-07
1531,0.999546,0.00037433923,4.1780673e-05,3.7800415e-05,2.6325283e-08
1532,0.9897441,0.006555823,0.0016263193,0.0020220252,5.1648592e-05
1533,0.99493366,0.004892415,0.000102057245,7.1293594e-05,5.21495e-07
1534,0.9983729,0.000693795,0.00017146725,0.0007203625,4.152528e-05
1535,0.99994373,5.38403e-06,3.6982797e-08,5.0888346e-05,1.06076474e-10
1536,0.9974957,0.0010819244,0.0007478585,0.0006724173,2.003226e-06
1537,0.9995697,0.00042893895,5.9349887e-08,1.2004264e-06,5.577634e-10
1538,0.99955755,0.00025990442,0.0001244895,5.78227e-05,1.8607143e-07
1539,0.99891937,0.00019025846,0.000693999,0.00018743657,8.89625e-06
1540,0.99985754,5.2380633e-06,3.3429012e-06,2.868833e-07,0.00013359552
1541,0.9922355,0.0076348726,5.4511904e-05,7.489778e-05,2.4832886e-07
1542,0.9996753,1.8126973e-05,3.3434042e-06,0.0003032657,1.7398015e-08
1543,0.99809545,0.0018979767,3.4778012e-07,6.2102326e-06,9.335759e-10
1544,0.9998294,0.000155162,4.822855e-06,1.0519798e-05,1.2431343e-10
1545,0.9995701,0.00040359577,1.143266e-06,2.5142763e-05,1.6119806e-08
1546,0.9976156,0.002112612,0.0002150341,5.578701e-05,1.0296257e-06
1547,0.9999659,6.941224e-06,1.0152688e-05,1.7048586e-05,2.0525976e-09
1548,0.9956891,0.002904109,0.00075733865,0.0006365263,1.29633345e-05
1549,0.97549814,0.00452796,0.01813295,0.0018293231,1.1654529e-05
1550,0.9995813,0.00038829114,2.338633e-05,7.024683e-06,7.548097e-09
1551,0.9998498,0.00014190117,3.4092707e-07,7.910394e-06,4.2270125e-09
1552,0.99964046,0.0002292907,4.7684007e-05,8.255716e-05,2.974407e-08
1553,0.9856016,0.001932284,0.010165165,0.0019756171,0.00032533676
1554,0.9990626,0.0007831239,4.4988778e-05,0.00010930215,1.5413923e-08
1555,0.997426,0.0020256226,0.00027715342,0.00027119648,1.9852342e-08
1556,0.9997987,8.6807035e-05,1.2453788e-07,0.00011436387,3.187482e-09
1557,0.9998061,0.00018533615,6.5275913e-06,2.0939679e-06,4.0282988e-10
1558,0.99992776,3.607324e-05,1.9786345e-05,1.6231488e-05,8.962083e-08
1559,0.99172735,0.007840766,6.670363e-05,0.0003642909,8.23379e-07
1560,0.99819845,0.0017906083,6.394933e-06,4.5083616e-06,1.6503956e-09
1561,0.09804987,0.00020250914,0.003245351,3.0102163e-05,0.8984722
1562,0.9999881,5.030998e-07,9.260166e-09,1.140637e-05,4.387848e-12
1563,0.9998267,0.00016585604,2.3084833e-06,5.074425e-06,1.6443207e-09
1564,0.9999144,5.5329205e-05,1.01812816e-07,3.0196106e-05,7.136155e-11
1565,0.9985506,0.0007732026,0.00046016186,0.000215485,4.9024186e-07
1566,0.9999989,1.0157482e-06,5.646407e-10,1.4715227e-08,4.0237817e-15
1567,0.99954873,0.00043367635,1.549021e-05,2.0577563e-06,4.5265738e-10
1568,0.99995935,4.0051516e-05,2.6974664e-07,3.752469e-07,3.8668835e-11
1569,0.9975922,0.0023369808,4.1102667e-05,2.9800252e-05,2.6210756e-08
1570,0.99938154,6.3094005e-05,0.00041323464,0.00014063959,1.3899431e-06
1571,0.99984646,3.3594075e-05,3.576139e-05,8.286764e-05,1.3370505e-06
1572,0.99973613,0.00026305244,5.1012984e-07,3.5913348e-07,5.8566825e-11
1573,0.99756145,0.0010428582,0.0013312099,6.264825e-05,1.783971e-06
1574,0.9999163,3.1983967e-05,8.077518e-08,5.1705414e-05,1.4793353e-10
1575,0.992149,0.0065237214,0.0010071038,0.00030516533,1.4993499e-05
1576,0.9998889,0.000101967984,1.7320658e-06,7.4087584e-06,1.492464e-11
1577,0.9991787,0.00020973413,5.849838e-06,0.00060506054,5.6382777e-07
1578,0.9298774,0.0024980237,0.026342515,0.0017781113,0.039503958
1579,0.9998779,6.7867724e-05,2.955278e-05,2.4728799e-05,5.851447e-08
1580,0.99367696,0.006169115,0.00010939247,4.418743e-05,2.0854853e-07
1581,0.9998031,0.00018859313,1.3237842e-07,8.237526e-06,3.9387563e-10
1582,0.9949425,0.004379463,0.00029238494,0.0003749629,1.0645418e-05
1583,0.9984847,0.001484992,1.7592292e-05,1.2701923e-05,7.505711e-09
1584,0.9999721,2.3418042e-05,8.3603425e-08,4.4380486e-06,2.257556e-10
1585,0.99970514,0.0002774634,4.846576e-06,1.2498333e-05,6.3153593e-10
1586,0.9996489,6.963064e-05,2.7610795e-06,0.00027873064,3.1534533e-08
1587,0.999798,1.9519957e-05,3.5722638e-05,0.00014578277,9.532852e-07
1588,0.992448,0.0012811039,0.0045226496,0.0017293146,1.8990759e-05
1589,0.9974214,9.754298e-05,3.612479e-05,0.00241609,2.890297e-05
1590,0.99966395,0.00032743628,2.3955247e-06,6.158312e-06,8.873657e-09
1591,0.99999774,2.8333922e-08,2.1608598e-06,1.2933434e-07,3.765357e-09
1592,0.99989986,2.0556632e-05,3.26488e-05,4.7015754e-05,2.1435541e-08
1593,0.99995387,7.062863e-08,3.2373006e-05,1.3549884e-05,6.371826e-08
1594,0.99999654,7.5187893e-07,1.3771768e-07,1.0223471e-07,2.489056e-06
1595,0.9999597,3.895995e-05,6.823972e-07,6.6841324e-07,3.721262e-13
1596,0.99980265,0.0001527372,6.7149875e-07,4.3773634e-05,8.8446114e-08
1597,0.9998839,0.00010300967,5.92109e-06,7.230007e-06,2.1668868e-10
1598,0.9999527,2.094979e-05,3.4458324e-08,2.6311733e-05,3.2791111e-12
1599,0.9998956,9.541478e-05,6.513611e-08,9.017546e-06,9.76227e-11
1600,0.9999937,6.287528e-06,1.8497806e-09,3.5942936e-08,1.09126744e-13
1601,0.99416345,0.0037733768,0.0018647177,8.6588516e-05,0.000111910755
1602,0.9966785,0.0026833112,1.75351e-05,0.0005480416,7.2708135e-05
1603,0.99626356,0.0014838395,5.228265e-05,0.0021680552,3.235344e-05
1604,0.9969062,0.0029436538,4.3971086e-06,0.00014573561,5.4364452e-08
1605,0.9999423,2.4482399e-05,1.9871315e-05,3.4158757e-06,9.9906565e-06
1606,0.99943227,2.501272e-05,0.0003759225,0.00016243437,4.2805596e-06
1607,0.9994741,1.6241478e-05,1.1180694e-05,0.0004985023,5.6904575e-08
1608,0.9984511,0.001525108,1.06396665e-05,1.2086114e-05,1.0914455e-06
1609,0.9999964,8.830719e-07,5.8518252e-09,2.6796095e-06,2.3387906e-12
1610,0.9908058,0.009158571,2.9620627e-05,5.1869024e-06,7.022595e-07
1611,0.98631555,0.0023714842,8.085889e-05,0.011212755,1.9389428e-05
1612,0.99991,4.939119e-05,4.2775605e-06,3.6360547e-05,7.9925205e-11
1613,0.9999993,7.51002e-08,1.1481671e-09,6.3114277e-07,7.2286056e-14
1614,0.97932774,6.55561e-05,1.3700995e-06,0.020605043,1.8316925e-07
1615,0.9995566,8.713815e-05,0.00020438962,0.00015186745,1.20919115e-08
1616,0.9978823,0.0013218265,2.935758e-05,0.00076244166,4.0666614e-06
1617,0.99856466,0.0013746083,3.1973497e-05,2.8680406e-05,5.6020397e-08
1618,0.9999939,5.0819963e-06,2.201515e-08,9.3733723e-07,2.0412564e-11
1619,0.9998468,0.00014561675,1.557809e-06,5.9084728e-06,2.9951947e-11
1620,0.99940777,0.0005171947,1.2934128e-05,6.207061e-05,3.6100718e-09
1621,0.99753016,0.0010171963,0.0010996804,0.00033094117,2.194156e-05
1622,0.99787724,0.0019941314,0.00010314971,2.525927e-05,2.197707e-07
1623,0.99028945,5.5319797e-05,4.2343743e-07,0.009654718,1.1109095e-07
1624,0.9999876,9.652449e-06,6.635192e-07,2.1075077e-06,8.666205e-14
1625,0.9986884,0.0012418012,5.5640767e-06,6.424158e-05,2.7916258e-08
1626,0.9993975,0.000493403,8.0441496e-05,2.8572493e-05,5.971889e-08
1627,0.99983895,0.00015942266,6.66727e-07,8.5858653e-07,1.5089706e-11
1628,0.99989486,0.00010299459,3.4797354e-10,2.1982908e-06,6.7010747e-10
1629,0.99744594,0.0017245786,0.00025564092,0.0005728808,9.3730046e-07
1630,0.9703653,0.012345655,0.005729855,0.011489299,6.9916045e-05
1631,0.9798773,3.387773e-05,9.33228e-07,0.02008794,4.5775078e-08
1632,0.9997758,0.00018161061,3.321061e-05,9.352557e-06,5.6272302e-09
1633,0.9997732,0.00016196331,4.0642246e-07,6.4105676e-05,3.763984e-07
1634,0.99980277,1.2720207e-05,1.3009605e-07,0.00018433343,2.763775e-10
1635,0.9998741,4.583348e-05,2.9192997e-05,5.0839735e-05,8.6559393e-10
1636,0.9999918,8.236489e-06,2.3840943e-08,2.5978803e-08,6.5539647e-13
1637,0.99978644,6.920161e-05,6.795986e-06,0.00013757449,2.6631689e-08
1638,0.9992887,0.00063880003,1.3882462e-07,1.2553619e-05,5.9763363e-05
1639,0.9994723,0.00052310596,2.3218993e-06,2.3433843e-06,7.215502e-10
1640,0.9995185,0.00043937934,1.0370034e-05,3.1710675e-05,7.1824957e-10
1641,0.99996185,2.846023e-05,5.1266802e-08,9.631447e-06,4.9533273e-11
1642,0.99987006,8.2240236e-05,9.907272e-09,4.748211e-05,2.6090552e-07
1643,0.97908,0.0085830055,0.0034571735,0.007796294,0.0010834435
1644,0.8606526,0.12652506,0.002522173,0.0076969117,0.002603288
1645,0.99999094,8.961623e-06,6.4527846e-08,7.638211e-08,6.1281856e-12
1646,0.9980811,0.00030320048,0.0014538579,0.00013864516,2.3164894e-05
1647,0.99997807,2.0236348e-05,1.3803952e-07,1.4937143e-06,7.999607e-11
1648,0.9996803,0.00012724576,5.5017676e-07,0.0001919524,1.4084462e-09
1649,0.99999845,9.216212e-07,9.062067e-09,5.955912e-07,8.193175e-13
1650,0.9994849,0.0005149755,6.2000645e-08,6.232908e-08,1.5881693e-10
1651,0.9999975,2.1397518e-06,1.0230165e-08,3.2746038e-07,3.893243e-08
1652,0.9999225,6.801265e-05,9.3644474e-07,8.500337e-06,1.2543838e-09
1653,0.99989605,9.942591e-05,1.230189e-07,4.4244807e-06,1.2452794e-10
1654,0.9999579,1.3975953e-05,1.2153213e-05,1.60251e-05,1.1964223e-09
1655,0.9969217,0.002632414,0.00034500382,9.6604315e-05,4.2540123e-06
1656,0.9996433,0.00020313621,1.6836955e-06,0.00015179461,6.177796e-10
1657,0.9997508,2.3687217e-05,5.4774293e-05,0.0001685774,2.185454e-06
1658,0.99922025,0.0007075936,8.6710525e-06,6.3461746e-05,1.7256479e-08
1659,0.9999125,6.8687135e-05,2.294399e-06,1.6542599e-05,1.3251618e-11
1660,0.9999268,6.776814e-05,8.974412e-07,4.408333e-06,5.3419585e-10
1661,0.9999374,5.8798476e-05,2.8034974e-06,1.03166e-06,6.7705314e-10
1662,0.98239154,0.016774919,0.00060623925,0.00019673187,3.062032e-05
1663,0.99312943,0.00034171512,1.0009318e-06,0.0065273033,6.232906e-07
1664,0.99977726,4.323267e-06,9.785168e-06,7.8477814e-07,0.00020785184
1665,0.9992526,0.000722017,1.9195475e-05,6.1449387e-06,2.4935979e-08
1666,0.98498374,0.015002694,8.437481e-07,1.2750446e-05,3.4127685e-09
1667,0.9952018,0.0037500237,0.0005871637,0.00045880614,2.119908e-06
1668,0.99916434,0.00081949,1.1113381e-05,5.0742606e-06,1.731944e-09
1669,0.99965787,0.000110916684,0.00020360581,2.7633027e-05,3.9455035e-08
1670,0.99997985,3.7154248e-06,7.1426483e-09,1.649291e-05,1.4923977e-11
1671,0.9956857,0.004031998,7.810933e-05,0.00020331674,9.2552744e-07
1672,0.9997662,0.00023258007,7.484816e-07,6.1090924e-07,7.175343e-11
1673,0.9998443,0.00012919205,4.016397e-06,2.2492259e-05,5.90464e-11
1674,0.7704565,0.22434409,0.0012748432,0.0031593274,0.00076518394
1675,0.99977595,0.0002172316,3.963538e-06,2.263671e-06,6.530921e-07
1676,0.99988794,0.00010387614,4.853688e-08,8.179511e-06,8.48164e-11
1677,0.99995005,4.608874e-05,1.9082684e-07,3.6578424e-06,1.795322e-10
1678,0.99904317,0.00028377428,0.0005320537,0.00013909601,1.9111862e-06
1679,0.9986731,0.0009525801,4.0607945e-05,0.00033317014,6.1009234e-07
1680,0.96962446,2.6312604e-05,5.0934837e-06,0.030343864,2.2329193e-07
1681,0.9995646,0.00017654797,0.00023501026,2.3637002e-05,6.078275e-08
1682,0.9955989,0.0010338043,0.0010066897,0.0020597372,0.000300779
1683,0.9998704,0.00012127414,4.0203913e-06,4.312917e-06,8.274074e-11
1684,0.99295557,0.0008432341,0.0049199746,0.0012767541,4.3383543e-06
1685,0.9998342,0.00015910158,1.5936291e-06,5.044923e-06,3.0388222e-10
1686,0.99958795,6.51076e-05,5.1742285e-05,0.0002952113,2.31672e-08
1687,0.9996339,0.00033469763,9.282272e-06,2.2002307e-05,3.556365e-09
1688,0.99997675,1.89318e-05,1.2978638e-06,3.0087901e-06,1.599423e-10
1689,0.99996877,3.0620773e-05,1.3240235e-11,6.3857703e-07,1.8265863e-11
1690,0.9992588,5.6613775e-05,0.00063866616,4.5229426e-05,7.4432654e-07
1691,0.9997037,0.00027192492,1.386671e-05,1.0439964e-05,3.6821675e-09
1692,0.9963038,0.003579893,9.381614e-05,2.2310673e-05,8.5195325e-08
1693,0.99988186,8.096331e-05,2.454144e-05,1.2645205e-05,2.106463e-08
1694,0.99896324,0.00064947415,0.00017469493,0.00021233472,2.1645212e-07
1695,0.99560636,0.0043874513,4.1148928e-07,5.8014934e-06,9.949033e-10
1696,0.99993134,6.709035e-05,8.311291e-07,7.2256864e-07,3.480378e-11
1697,0.9999049,5.299804e-05,2.3857374e-05,1.8172632e-05,1.8055988e-09
1698,0.99958843,0.00040049534,6.916949e-09,1.1121237e-05,4.1127133e-09
1699,0.9999621,5.9275653e-06,2.2991428e-05,3.5806836e-06,5.3350655e-06
1700,0.9935587,0.005274081,0.0010203149,9.39687e-05,5.2999287e-05
1701,0.9987375,0.0011154914,3.5569515e-06,0.00014332143,6.568861e-08
1702,0.99995685,4.2658874e-05,2.167193e-07,2.5718975e-07,5.6282405e-12
1703,0.9999356,5.3817148e-05,1.0045817e-06,9.617097e-06,1.0799784e-11
1704,0.7814731,0.1098186,0.07936253,0.014381058,0.0149646625
1705,0.97607625,0.00024729312,1.7953462e-05,0.02365548,3.0501317e-06
1706,0.99990165,4.9318718e-05,4.7674956e-05,1.2488808e-06,6.406956e-08
1707,0.99992895,7.0062124e-05,5.111463e-07,4.8022014e-07,8.328485e-12
1708,0.995971,0.003250486,0.0003246925,0.00045274576,1.0204291e-06
1709,0.999318,0.0006710706,1.0290826e-08,1.090909e-05,2.5512217e-10
1710,0.9999759,2.695196e-06,3.422633e-08,2.1315172e-05,1.2478958e-12
1711,0.9980413,0.0019558521,1.0689058e-07,2.7931665e-06,3.0610048e-09
1712,0.9981122,0.00188508,6.515649e-08,2.6858993e-06,3.329801e-10
1713,0.99990666,9.062334e-05,4.00639e-10,2.7369872e-06,5.81167e-09
1714,0.9979954,0.00029591876,0.0014094189,0.0002629824,3.6356774e-05
1715,0.9995586,7.993982e-05,0.00028584446,7.517612e-05,3.6441205e-07
1716,0.9995505,0.00025068378,0.00018644166,1.2258871e-05,9.4102734e-09
1717,0.9998591,0.00013917974,1.3590004e-06,2.6646697e-07,2.405287e-10
1718,0.99773824,0.0021736303,2.1630261e-05,6.648233e-05,8.985916e-09
1719,0.9998167,1.4778401e-06,7.721033e-05,0.000104402236,2.3362497e-07
1720,0.46131948,0.5349555,0.0029341166,0.0007819096,8.9534315e-06
1721,0.9998865,9.8946424e-05,1.6879479e-06,7.87837e-06,5.0615677e-06
1722,0.99998975,9.016607e-06,4.9723417e-07,6.5351037e-07,8.791019e-14
1723,0.99765635,0.0006535328,0.00038507962,0.0013048255,2.3126479e-07
1724,0.9999838,2.7477647e-06,1.0855256e-08,1.3408476e-05,3.7291535e-13
1725,0.9886457,0.011057591,0.00018279813,0.00011381845,9.1283546e-08
1726,0.999863,0.00012949904,6.5021536e-06,1.0454127e-06,4.3393927e-10
1727,0.9994394,0.000538899,6.8450818e-06,1.48300005e-05,8.7727353e-10
1728,0.9964994,0.00186953,0.0008610206,0.00076719973,2.8615045e-06
1729,0.999956,8.8724164e-07,3.0685456e-05,1.2423633e-05,1.4629913e-08
1730,0.99967134,0.00020697022,8.811364e-05,3.3435455e-05,8.345276e-08
1731,0.9999542,3.9464834e-05,9.179971e-07,5.384651e-06,7.636865e-12
1732,0.99979526,9.114887e-05,2.1241642e-05,9.2380345e-05,5.7499283e-10
1733,0.99993134,6.425931e-05,4.280159e-09,4.382101e-06,9.808814e-11
1734,0.9999732,2.4811547e-05,1.2199956e-10,9.0654915e-08,1.8898764e-06
1735,0.9999485,4.6589495e-05,2.1688547e-06,6.648976e-07,2.0784123e-06
1736,0.9994055,0.00044652994,0.00012897227,1.8881652e-05,7.738188e-08
1737,0.9994838,0.00018056901,1.6758311e-06,0.00033385938,7.3565984e-09
1738,0.98770756,0.00022313694,2.125406e-06,0.012066512,7.611948e-07
1739,0.99873835,0.0011703306,1.852568e-05,7.277834e-05,7.2273623e-09
1740,0.9966671,0.003289541,2.8679464e-05,1.4579384e-05,1.4863987e-07
1741,0.9994467,0.0005444341,2.8752027e-06,5.9302142e-06,2.3137804e-10
1742,0.9999206,7.128385e-05,2.5334284e-06,5.6027666e-06,2.2414952e-11
1743,0.9999188,7.960195e-05,6.6604497e-07,8.282449e-07,5.164708e-11
1744,0.9938706,0.004463278,3.5988123e-05,0.001544619,8.543589e-05
1745,0.98372275,0.015242996,0.00086159236,0.00015661154,1.6075042e-05
1746,0.99769706,0.0020842939,0.00018052197,3.769877e-05,4.0475663e-07
1747,0.99985564,0.00013143655,3.331339e-06,9.53157e-06,4.5193852e-11
